
Chip#1
93 94 97 96 93 104 98 88 101 90 98 96  0
110 107 116 118 114 120 120 108 112 112 120 115  1
111 111 131 142 101 135 150 111 128 153 114 110  2
109 107 114 121 107 116 127 109 122 130 113 111  3
104 106 129 131 104 122 137 105 113 105 107 105  4
105 111 707 705 110 713 1208 137 124 136 108 104  5
99 104 337 346 101 416 672 111 114 118 101 107  6
106 109 128 130 108 115 117 110 116 101 106 108  7
104 105 842 822 107 464 538 109 109 97 102 106  8
106 110 552 484 110 445 521 112 108 104 111 110  9
109 107 106 109 103 114 112 105 107 96 107 110  10
115 111 104 107 108 111 107 102 108 101 107 15000  11
Chip#2
115 113 117 115 117 116 114 109 105 104 114 110  0
117 120 122 119 121 117 120 113 114 113 116 120  1
120 118 122 120 125 143 119 116 117 111 121 120  2
118 119 126 129 127 121 129 123 116 117 128 120  3
116 119 121 141 133 118 136 125 112 117 125 117  4
121 120 124 125 123 143 124 118 114 112 119 120  5
113 109 120 122 121 122 376 370 108 220 332 126  6
109 110 115 133 127 143 735 748 116 340 490 135  7
112 111 119 115 118 119 166 165 107 118 138 112  8
115 118 122 117 121 118 179 217 112 205 367 137  9
117 115 122 117 119 124 377 483 129 386 702 196  10
118 113 121 116 118 121 149 173 111 136 198 15000  11

Chip#1
99 96 102 102 98 101 99 98 99 97 98 96  0
102 94 103 110 101 107 105 104 102 105 101 100  1
97 95 122 131 94 124 135 98 116 145 101 92  2
103 100 109 113 100 116 122 102 109 122 98 100  3
105 107 129 132 103 120 136 105 107 103 107 100  4
101 106 707 703 109 713 1208 138 121 133 108 105  5
108 109 341 351 109 425 676 122 116 129 111 106  6
104 102 123 125 105 110 112 103 104 99 102 102  7
103 107 843 820 108 446 530 110 103 93 103 100  8
101 101 540 476 103 433 517 108 103 100 105 101  9
104 99 102 109 98 104 106 100 101 93 100 102  10
120 106 104 103 104 106 108 108 107 101 107 15000  11
Chip#2
116 114 117 112 116 112 116 114 108 108 112 117  0
111 114 114 110 111 112 112 110 108 105 114 114  1
117 115 117 117 116 118 119 112 110 110 114 121  2
111 115 115 124 124 113 128 119 108 114 121 112  3
115 115 121 138 129 117 133 127 107 118 123 116  4
113 118 121 119 119 112 120 113 116 112 116 117  5
118 120 122 127 129 123 383 379 119 244 343 131  6
104 106 112 128 123 118 732 749 116 335 477 132  7
115 117 117 119 118 118 168 169 113 120 145 120  8
113 118 122 110 118 114 183 217 113 200 365 130  9
117 117 119 116 116 121 379 487 136 386 699 200  10
123 122 122 120 122 117 154 181 116 135 207 15000  11

Chip#1
109 110 104 112 104 109 109 104 106 101 106 108  0
103 102 107 114 101 107 107 101 106 101 107 101  1
103 102 126 138 105 129 147 110 119 145 113 102  2
97 99 106 108 96 114 113 103 108 121 101 101  3
105 104 130 135 104 120 132 107 104 105 102 100  4
106 101 703 704 107 713 1211 133 117 128 103 95  5
109 109 343 350 107 419 678 121 118 124 109 106  6
103 101 122 126 101 109 108 105 103 92 103 95  7
105 109 845 827 105 445 537 111 104 101 101 101  8
102 105 543 479 107 433 505 107 107 100 98 104  9
108 101 100 108 96 104 102 102 103 93 97 95  10
115 106 102 110 102 105 107 100 103 97 102 15000  11
Chip#2
124 123 120 116 119 118 118 113 116 111 118 120  0
106 104 109 108 108 104 105 100 105 101 101 101  1
117 114 116 114 118 111 110 113 107 108 109 112  2
110 109 112 120 121 111 122 116 102 109 119 108  3
116 118 121 141 132 116 132 127 111 119 126 115  4
115 115 120 115 116 116 117 111 111 108 116 108  5
112 111 110 118 119 113 368 366 108 216 329 120  6
111 111 114 128 127 121 735 752 111 337 469 129  7
117 120 119 116 127 118 171 173 113 120 139 115  8
117 122 121 118 121 118 190 222 118 208 371 136  9
117 119 116 116 119 117 378 482 134 381 704 197  10
116 114 116 113 116 116 149 173 111 127 198 15000  11

Chip#1
104 102 103 103 102 104 102 100 102 100 103 100  0
104 100 109 114 105 111 112 108 103 109 108 102  1
98 100 122 136 98 128 141 105 118 149 106 101  2
105 105 109 116 103 115 121 102 111 128 108 102  3
104 104 128 135 105 121 134 108 109 100 102 100  4
98 104 692 693 105 703 1205 124 116 128 100 96  5
104 104 333 348 109 414 670 114 117 126 107 104  6
101 94 115 121 97 103 105 97 100 93 95 94  7
101 105 829 813 101 441 526 102 102 92 98 99  8
103 105 535 474 105 431 517 111 106 103 101 101  9
105 99 102 99 100 104 104 100 101 93 98 95  10
110 102 103 106 102 104 105 103 104 99 103 15000  11
Chip#2
111 110 114 110 110 112 111 110 107 107 111 109  0
112 114 114 110 113 112 112 113 105 104 112 111  1
116 117 115 113 117 114 116 110 108 105 115 114  2
112 113 119 123 123 113 128 121 106 110 126 114  3
109 111 112 130 127 111 130 123 105 111 121 111  4
116 122 121 122 122 118 122 118 114 113 119 114  5
118 118 116 119 125 122 379 378 114 241 340 124  6
111 113 114 134 127 121 730 749 112 340 477 132  7
117 119 117 117 121 118 173 169 112 120 145 115  8
124 127 127 124 128 143 194 228 124 212 376 140  9
112 114 112 109 114 113 372 475 123 373 686 184  10
117 123 120 115 119 117 150 178 113 132 201 15000  11

Chip#1
110 106 104 113 109 109 102 108 104 100 106 99  0
103 102 103 110 104 109 109 103 101 103 98 100  1
108 106 131 142 105 133 147 111 131 150 112 104  2
106 104 109 119 105 118 128 109 117 132 106 105  3
101 102 128 131 104 118 130 103 102 96 100 95  4
106 105 698 704 111 713 1207 126 117 128 102 100  5
106 106 339 347 108 416 675 116 114 125 105 107  6
104 99 122 126 103 109 113 104 106 95 101 104  7
104 107 844 821 108 447 536 109 108 96 100 94  8
105 100 540 478 102 428 504 109 103 93 95 94  9
105 106 105 108 102 106 107 98 103 93 96 96  10
115 109 106 113 107 106 106 103 103 101 106 15000  11
Chip#2
112 111 107 105 112 106 105 105 104 99 107 108  0
113 111 109 112 110 108 107 104 101 104 109 111  1
111 114 111 112 115 114 114 110 107 109 112 112  2
109 114 110 119 117 108 123 116 106 112 123 110  3
107 111 111 134 124 114 130 119 107 115 119 114  4
109 114 112 116 115 111 116 110 108 111 112 111  5
112 115 112 120 122 122 380 374 111 223 339 126  6
111 118 116 136 130 128 743 762 118 345 500 142  7
113 114 114 116 112 111 165 165 110 117 139 115  8
110 114 109 112 113 112 177 213 107 201 362 129  9
120 122 116 116 121 121 377 481 128 382 695 197  10
117 118 119 116 118 121 150 181 117 140 202 15000  11
