
Chip#1
132 109 103 111 120 107 115 115 103 102 107 105  0
165 153 130 172 182 133 263 263 127 133 131 112  1
149 145 121 157 174 124 246 247 121 129 147 106  2
132 113 111 116 120 109 128 129 109 112 131 103  3
182 179 119 129 127 122 251 261 123 119 131 112  4
162 152 114 121 125 120 244 256 120 117 116 101  5
132 114 112 116 113 112 125 126 104 110 105 105  6
168 151 120 124 122 124 262 250 119 122 115 102  7
153 139 114 121 121 121 255 242 123 124 131 102  8
138 123 114 116 116 106 133 124 108 118 131 108  9
162 147 119 116 115 121 255 229 114 127 147 105  10
155 140 112 122 119 125 245 228 118 132 131 15000  11
Chip#2
128 112 109 99 113 108 102 101 96 107 104 114  0
128 138 114 119 148 123 504 537 100 124 114 119  1
135 168 130 155 203 129 997 999 106 140 127 119  2
135 129 114 109 130 131 174 178 106 122 112 115  3
134 167 147 124 144 158 586 700 104 134 128 121  4
134 188 147 124 149 158 649 734 97 128 119 115  5
135 123 116 115 127 133 137 133 97 111 106 115  6
134 173 147 124 142 174 602 706 109 133 128 119  7
135 157 124 120 134 127 426 465 97 122 116 118  8
135 124 120 114 121 132 189 219 97 120 114 118  9
134 184 124 110 133 119 1061 1290 110 135 127 114  10
134 157 147 108 119 117 449 572 100 121 117 15000  11

Chip#1
110 113 108 109 115 103 116 115 103 107 102 98  0
157 150 120 165 170 129 254 261 121 122 131 98  1
147 146 121 159 176 130 247 253 126 128 147 102  2
115 117 103 112 114 111 124 126 108 108 107 101  3
181 163 117 124 127 115 247 251 118 118 131 101  4
161 144 116 117 122 121 249 256 120 118 131 101  5
109 106 107 107 111 109 124 119 107 99 107 100  6
163 148 117 118 117 123 260 249 116 119 116 101  7
157 139 114 116 116 117 247 239 115 121 131 101  8
132 117 114 112 112 107 137 159 110 107 131 103  9
166 157 125 122 124 132 270 239 116 127 131 106  10
153 143 116 113 117 122 254 226 115 131 131 15000  11
Chip#2
135 107 104 99 105 105 104 102 100 104 103 108  0
135 132 112 123 145 113 507 535 96 121 115 114  1
135 160 120 152 188 122 994 999 98 129 116 110  2
135 113 106 103 114 115 166 162 98 102 95 104  3
135 161 120 115 137 125 586 753 102 127 117 109  4
134 188 147 126 148 158 650 729 102 128 120 114  5
135 118 119 115 129 131 138 132 100 113 106 114  6
135 172 128 125 140 133 586 690 109 132 125 116  7
135 154 121 113 129 125 419 455 98 115 114 109  8
135 124 120 113 123 128 193 208 98 120 115 119  9
141 185 147 119 137 123 1114 1335 122 139 127 118  10
142 148 114 105 116 105 446 580 122 115 110 15000  11

Chip#1
132 116 112 117 122 112 121 120 109 110 131 103  0
152 150 120 161 174 123 252 257 118 124 131 101  1
145 142 117 158 175 127 245 251 122 122 131 102  2
113 113 106 111 116 108 122 124 103 104 104 100  3
180 158 121 124 120 117 246 252 119 113 107 94  4
163 148 115 116 119 116 239 252 115 116 131 103  5
132 119 117 113 114 109 132 124 108 114 104 102  6
169 154 122 124 122 125 263 252 120 124 131 105  7
152 137 109 116 119 119 251 239 116 123 131 101  8
115 119 112 110 107 109 135 124 102 112 102 99  9
160 147 117 112 114 124 258 230 108 123 131 95  10
162 142 128 123 126 132 261 242 123 137 147 15000  11
Chip#2
112 105 107 103 105 105 106 104 88 109 104 112  0
142 137 119 129 149 116 511 542 98 126 119 115  1
141 168 147 152 194 123 998 1002 106 132 123 117  2
142 126 120 115 133 126 183 178 101 120 114 117  3
142 159 147 116 135 127 586 757 98 126 120 115  4
142 182 124 118 142 131 643 729 97 124 115 112  5
142 112 113 113 124 121 137 135 97 108 103 109  6
142 165 126 119 139 128 602 690 101 129 120 114  7
142 159 120 118 134 129 424 465 98 124 115 114  8
112 120 112 104 106 119 185 218 98 113 105 114  9
142 185 128 114 128 119 1098 1341 118 135 125 113  10
142 157 122 109 123 117 464 598 108 124 120 15000  11

Chip#1
109 112 106 112 114 101 119 117 99 102 105 95  0
153 143 117 159 171 119 251 257 115 117 131 100  1
143 138 117 158 169 121 246 244 116 123 131 102  2
110 108 102 107 113 99 124 119 100 102 101 93  3
180 179 120 128 127 120 249 254 120 118 131 105  4
156 138 106 115 120 106 240 245 108 108 102 92  5
106 107 111 111 109 106 127 119 102 107 102 95  6
168 146 116 117 125 121 263 246 120 121 131 102  7
150 136 114 116 115 120 247 237 113 115 114 99  8
112 116 107 108 106 105 128 123 102 105 104 99  9
172 157 124 122 122 129 270 239 123 132 147 106  10
150 132 112 111 111 124 246 229 109 124 147 15000  11
Chip#2
142 114 114 107 108 111 116 109 108 113 110 113  0
142 139 119 128 149 119 506 543 100 122 122 120  1
142 160 116 145 182 121 986 994 100 124 109 107  2
112 120 119 109 123 122 176 162 99 114 102 113  3
142 163 115 119 133 126 586 690 102 127 114 112  4
142 187 131 129 145 142 641 738 102 128 122 113  5
142 115 118 113 123 128 134 131 102 109 108 109  6
112 167 126 125 138 131 586 674 106 131 123 114  7
142 162 132 124 139 136 431 469 105 126 120 119  8
142 127 147 115 122 158 189 222 97 119 112 114  9
141 188 147 114 125 117 1098 1326 109 131 122 114  10
142 148 122 109 119 120 454 585 101 119 116 15000  11

Chip#1
110 116 107 113 120 111 115 122 106 108 109 101  0
159 151 129 174 183 127 257 265 122 128 131 106  1
146 144 121 158 175 127 251 250 121 122 131 106  2
133 117 112 113 115 113 132 131 112 112 110 105  3
186 178 130 136 138 125 261 266 125 122 131 108  4
162 151 115 125 122 119 249 256 120 118 131 105  5
132 113 115 113 115 114 133 124 109 114 110 105  6
169 154 117 123 125 129 265 250 119 128 131 109  7
157 145 119 123 126 127 257 247 120 123 147 106  8
132 120 114 115 112 106 140 124 108 114 131 106  9
166 160 125 121 121 127 268 237 118 131 131 115  10
150 137 110 111 114 120 244 230 109 127 131 15000  11
Chip#2
112 106 109 97 104 104 100 102 101 105 102 108  0
112 130 110 119 143 106 499 536 101 117 116 113  1
112 167 127 156 194 125 992 999 105 134 123 113  2
112 125 120 113 125 121 179 178 101 120 111 118  3
142 157 120 113 135 123 578 690 97 125 117 109  4
139 196 147 132 150 158 653 742 109 131 123 119  5
140 121 147 118 125 158 146 162 102 116 114 118  6
140 166 122 121 133 127 586 690 101 124 115 112  7
112 153 121 113 131 126 419 459 97 113 114 112  8
112 115 114 107 118 123 187 212 97 115 106 113  9
139 185 147 116 130 117 1098 1338 120 139 125 117  10
140 151 121 105 118 110 459 590 98 114 112 15000  11

Chip#1
132 105 102 110 116 100 116 114 97 99 96 96  0
155 148 121 167 174 127 260 263 121 124 131 103  1
146 143 115 155 171 128 247 247 120 119 131 102  2
135 121 117 118 120 113 133 133 113 117 131 106  3
172 179 117 122 125 119 251 253 119 119 131 101  4
157 146 114 119 125 116 247 251 115 112 131 100  5
132 115 112 116 113 109 130 122 107 109 131 100  6
162 140 120 117 118 120 265 245 119 117 115 102  7
156 137 114 118 118 119 256 239 118 119 131 102  8
132 120 110 117 115 111 137 125 116 114 131 107  9
158 145 117 116 109 120 265 231 110 126 131 99  10
151 138 115 117 113 125 255 228 112 129 131 15000  11
Chip#2
140 112 108 107 110 111 110 107 98 109 108 113  0
139 129 114 123 142 116 507 539 98 116 116 110  1
140 168 126 156 190 126 1000 1000 109 133 125 116  2
90 112 107 105 119 120 171 154 72 111 104 110  3
144 166 124 121 143 134 586 706 101 128 123 115  4
144 187 127 129 140 138 648 735 100 127 125 112  5
128 121 121 121 133 129 143 137 97 113 109 118  6
128 173 127 126 145 138 586 690 106 133 126 120  7
128 155 120 109 128 123 417 461 98 113 108 112  8
128 125 116 110 115 127 188 205 98 115 110 117  9
144 185 147 115 135 127 1114 1347 116 140 128 125  10
128 157 125 107 121 113 459 597 104 118 116 15000  11
