
Chip#1
104 107 103 108 104 103 108 114 104 103 104 110  0
140 152 104 108 104 102 120 124 101 138 112 107  1
140 157 108 107 108 99 115 124 102 118 112 97  2
110 113 108 106 104 98 113 125 104 111 110 108  3
106 142 100 104 104 91 118 125 96 110 110 97  4
114 142 100 108 112 106 119 129 107 138 119 110  5
103 105 95 106 104 102 111 124 105 105 102 102  6
108 111 97 117 109 100 121 129 100 138 121 103  7
116 115 103 120 112 107 120 129 110 116 118 104  8
101 106 97 104 104 102 103 109 96 100 104 99  9
109 118 102 111 109 104 129 140 108 119 118 107  10
110 111 100 112 109 100 119 129 102 109 109 15000  11
Chip#2
122 122 112 107 110 108 109 108 111 136 106 113  0
139 142 116 116 118 112 120 118 122 136 123 118  1
133 131 107 107 110 108 112 111 113 136 111 115  2
114 118 108 111 109 112 110 107 116 115 110 113  3
126 127 111 119 121 113 120 120 122 131 119 122  4
120 126 112 119 117 116 114 116 117 122 111 115  5
123 121 114 112 114 111 113 116 118 117 116 114  6
112 115 104 110 107 105 110 107 114 131 110 112  7
111 113 104 104 110 105 112 105 113 113 107 113  8
118 120 111 115 114 111 114 112 114 117 110 114  9
124 123 108 110 113 108 116 114 114 121 111 112  10
127 123 110 111 115 113 116 114 118 122 116 15000  11

Chip#1
95 98 89 94 104 88 119 97 94 95 94 94  0
137 154 104 111 105 99 123 125 104 138 117 103  1
145 161 109 111 109 99 121 115 111 124 119 104  2
111 111 102 108 106 108 113 109 106 110 109 107  3
110 116 98 108 104 99 119 118 106 110 110 98  4
108 115 100 107 105 98 117 124 104 113 111 103  5
104 107 99 107 104 103 106 113 104 107 104 103  6
112 113 103 120 112 104 120 128 110 138 121 107  7
113 117 106 116 114 104 119 128 111 116 117 107  8
104 107 95 103 104 95 108 105 104 104 101 98  9
106 115 100 107 104 102 126 132 101 117 116 98  10
110 116 100 111 106 106 118 129 107 113 113 15000  11
Chip#2
124 127 106 110 109 109 108 107 111 120 107 113  0
130 132 104 103 104 99 105 102 105 116 110 106  1
126 131 107 110 112 107 108 107 112 120 112 113  2
122 127 114 116 121 115 114 115 120 131 118 127  3
118 116 108 111 109 108 110 109 114 120 115 113  4
118 113 97 104 101 103 103 108 105 106 102 106  5
118 110 95 100 101 100 98 108 104 104 102 104  6
123 126 110 116 119 113 116 112 117 131 122 118  7
123 117 103 111 114 105 105 102 112 118 110 113  8
119 122 106 115 111 111 109 108 112 131 115 114  9
114 120 104 105 112 105 104 105 109 131 110 110  10
120 122 106 107 114 109 106 108 113 118 111 15000  11

Chip#1
104 101 97 100 104 98 105 104 100 97 99 104  0
132 144 94 104 104 91 111 104 96 113 110 96  1
141 161 107 111 104 100 118 125 106 138 115 101  2
103 107 93 98 104 91 103 109 100 101 100 99  3
110 111 95 111 105 98 121 125 102 110 111 99  4
109 122 97 112 111 106 120 114 105 112 109 98  5
98 98 95 103 95 98 103 101 103 103 96 99  6
119 142 103 125 114 108 123 134 114 131 123 105  7
110 115 104 114 111 102 118 126 110 131 116 109  8
100 103 97 103 104 100 108 104 100 103 100 99  9
114 113 102 109 108 111 126 139 102 118 116 105  10
104 110 93 106 104 99 113 124 99 104 105 15000  11
Chip#2
120 125 108 111 114 109 105 104 111 117 108 113  0
138 137 108 107 112 111 109 109 112 118 112 108  1
126 135 111 111 110 107 108 103 112 131 111 115  2
114 120 107 110 110 109 106 107 114 131 108 114  3
118 123 106 111 109 109 112 112 112 131 108 112  4
111 120 108 110 113 108 105 105 112 116 110 109  5
111 116 106 108 110 107 100 103 112 112 105 108  6
116 126 108 112 118 113 109 108 114 131 110 113  7
111 122 108 110 113 111 105 104 112 116 112 110  8
115 118 112 110 113 109 106 105 113 115 108 114  9
120 127 110 112 116 112 114 114 117 117 111 113  10
119 118 108 108 109 104 110 107 109 116 105 15000  11

Chip#1
100 107 94 103 104 96 106 103 99 101 101 104  0
137 155 103 111 104 102 118 114 102 122 115 105  1
139 158 107 108 104 100 115 113 104 119 117 98  2
109 112 104 107 104 102 111 114 102 105 109 105  3
110 121 102 106 105 104 121 130 105 117 117 102  4
101 115 92 104 104 94 112 107 95 106 104 96  5
105 109 98 104 104 102 107 124 100 106 100 103  6
106 113 102 120 111 103 123 121 104 119 121 105  7
113 107 97 107 106 100 112 113 102 109 110 102  8
104 105 97 106 104 96 106 104 101 100 102 99  9
108 116 106 111 111 104 129 132 107 138 117 105  10
106 117 97 108 107 103 118 119 101 110 107 15000  11
Chip#2
114 122 104 104 108 103 104 104 107 112 107 106  0
139 145 114 112 110 109 108 108 112 131 112 110  1
116 127 97 103 104 105 104 98 105 107 105 104  2
111 118 104 107 109 105 109 107 108 115 109 104  3
111 116 104 107 112 103 109 104 108 116 114 108  4
123 127 112 118 121 112 113 116 112 131 119 113  5
123 112 103 110 109 105 102 107 104 111 105 104  6
118 118 110 115 114 112 110 109 109 120 116 109  7
115 115 103 106 112 107 100 103 105 117 108 106  8
111 120 103 107 108 108 103 107 104 112 110 109  9
111 116 102 106 108 107 106 108 109 111 108 103  10
130 126 112 111 118 116 116 117 118 131 115 15000  11

Chip#1
101 104 95 100 104 96 103 103 101 99 104 103  0
135 154 103 109 104 99 118 124 102 138 115 101  1
144 162 109 109 104 108 118 126 106 138 117 104  2
104 110 95 100 104 98 106 103 92 105 101 101  3
114 116 102 109 104 107 124 127 107 115 112 102  4
111 115 99 104 104 103 114 124 102 113 110 100  5
98 100 92 99 104 91 114 102 95 100 98 93  6
105 113 95 122 107 102 119 121 102 119 116 103  7
108 112 97 109 104 100 115 124 100 111 110 101  8
104 106 97 102 104 100 107 105 99 103 102 102  9
109 142 103 114 108 104 134 140 110 138 121 104  10
110 109 99 104 95 99 117 115 99 100 106 15000  11
Chip#2
116 123 100 104 106 101 100 102 107 106 105 106  0
133 141 111 105 108 107 105 105 111 115 110 106  1
119 134 106 107 106 104 106 102 111 131 108 106  2
119 118 104 110 106 103 104 107 109 113 107 105  3
112 121 108 108 109 107 106 107 113 115 110 114  4
115 126 111 116 117 111 110 111 117 116 118 114  5
115 118 102 104 104 107 105 105 105 107 102 109  6
115 116 104 107 104 100 105 105 104 110 107 105  7
115 117 102 108 106 104 100 100 108 110 110 108  8
119 123 112 114 113 116 113 112 116 122 114 117  9
119 122 110 111 116 107 109 107 115 119 112 109  10
115 121 106 104 109 103 102 103 108 107 103 15000  11

Chip#1
99 109 95 100 104 95 107 98 97 101 102 102  0
136 157 107 114 106 100 123 124 101 122 116 105  1
134 161 104 109 105 96 119 126 105 116 115 104  2
108 110 97 102 104 102 109 103 100 106 102 102  3
110 142 98 109 104 103 124 128 104 113 111 100  4
101 116 98 106 104 102 113 124 94 109 105 102  5
104 109 95 108 104 102 109 124 104 107 101 103  6
103 111 92 108 105 100 114 126 99 110 112 99  7
108 110 95 114 104 100 118 112 97 105 107 101  8
96 107 100 102 104 102 108 112 102 103 104 101  9
110 113 100 109 106 100 127 133 104 119 115 107  10
106 112 100 108 104 104 115 126 99 106 106 15000  11
Chip#2
111 118 102 100 108 100 98 99 103 110 101 105  0
135 137 114 107 111 105 105 108 112 131 116 110  1
116 126 108 107 105 104 108 102 109 112 111 109  2
114 117 106 105 111 107 104 104 111 111 103 110  3
114 120 107 104 106 107 106 109 116 115 111 113  4
114 120 103 101 112 97 103 103 108 110 110 109  5
114 115 104 103 109 100 105 104 104 110 106 106  6
114 118 104 110 109 105 105 107 108 113 111 108  7
114 110 100 106 104 99 102 104 103 112 105 109  8
114 116 106 107 109 104 106 104 108 108 110 109  9
120 122 103 105 109 105 106 111 109 117 107 108  10
120 115 103 103 108 96 104 103 107 107 102 15000  11
