
Chip#1
372 372 287 413 386 347 342 325 313 286 305 347  0
372 373 289 409 382 363 385 324 311 287 301 347  1
372 372 294 411 387 363 363 329 316 292 298 347  2
372 373 654 665 393 691 696 335 704 546 306 347  3
372 373 666 684 392 603 540 332 542 453 305 347  4
372 372 294 416 387 347 363 331 313 291 301 347  5
372 372 525 686 386 379 407 327 327 303 300 347  6
373 373 507 635 388 379 407 326 323 298 299 347  7
372 372 292 409 388 347 342 326 310 285 300 283  8
372 373 292 413 391 379 408 327 332 304 301 347  9
372 372 291 412 385 363 402 327 319 299 298 347  10
372 372 291 410 387 347 345 327 312 289 299 15000  11
Chip#2
470 460 314 399 403 302 372 463 363 420 342 303  0
458 454 305 396 397 297 296 456 347 413 336 300  1
470 459 309 398 401 304 298 464 363 414 339 300  2
463 455 305 392 400 443 406 457 379 431 332 297  3
411 459 309 395 401 422 392 463 379 427 341 301  4
463 457 308 398 399 302 296 457 363 416 340 296  5
468 462 532 489 405 397 379 463 395 437 363 303  6
466 459 491 459 403 389 363 458 379 426 363 298  7
466 456 310 395 402 306 298 462 363 418 338 301  8
469 463 598 551 406 635 534 464 611 551 363 304  9
465 462 552 501 402 544 477 463 576 517 340 301  10
471 461 314 402 404 380 363 461 379 420 363 15000  11

Chip#1
372 372 292 412 384 363 363 332 310 290 304 347  0
372 373 291 413 388 347 363 332 311 290 304 347  1
372 372 295 415 388 363 400 334 317 293 306 347  2
372 372 653 660 385 687 690 332 694 542 300 347  3
372 373 661 683 388 619 539 333 538 460 302 347  4
372 372 290 410 385 347 363 329 310 288 300 287  5
347 347 521 679 381 363 406 327 320 296 295 279  6
363 363 505 635 386 363 405 326 319 298 299 283  7
363 379 289 407 381 363 390 327 309 287 299 347  8
363 363 293 414 385 379 410 328 325 305 300 286  9
363 363 286 405 380 363 363 326 314 293 299 280  10
363 363 289 410 384 363 363 328 310 286 299 15000  11
Chip#2
462 450 303 394 397 300 295 462 347 413 338 296  0
461 450 305 394 395 299 296 458 363 414 334 298  1
395 449 302 391 393 301 290 454 347 409 334 294  2
457 452 301 393 395 438 400 454 379 422 331 292  3
462 451 303 394 395 418 388 458 379 420 333 291  4
463 455 310 398 398 303 347 459 363 415 335 298  5
461 451 524 486 395 363 363 458 379 429 336 296  6
461 454 483 455 395 388 305 459 379 424 336 293  7
462 451 304 394 395 301 347 454 347 411 333 295  8
459 456 587 547 396 635 528 457 611 546 334 295  9
461 454 549 494 400 534 463 457 567 510 335 298  10
411 450 308 396 398 302 297 460 363 414 343 15000  11

Chip#1
363 363 288 408 379 347 339 324 304 285 296 284  0
363 363 284 405 381 347 337 324 300 282 293 282  1
363 363 286 414 383 347 363 328 309 289 296 281  2
363 363 651 654 380 679 691 325 691 537 294 280  3
363 363 668 684 388 603 539 332 534 456 299 286  4
363 363 290 412 380 347 363 327 310 286 296 282  5
363 363 522 682 380 363 403 327 318 297 294 281  6
363 363 508 619 381 363 402 326 317 290 296 280  7
363 363 292 407 382 347 339 328 307 286 295 347  8
347 295 285 408 383 363 363 326 320 299 294 282  9
363 363 284 405 378 363 363 325 311 290 294 331  10
363 363 291 412 381 363 391 327 309 285 300 15000  11
Chip#2
466 452 310 396 399 301 347 456 363 412 363 298  0
461 452 306 394 395 298 347 455 363 412 339 300  1
395 448 303 395 395 297 290 457 347 411 334 292  2
411 453 307 396 399 445 401 461 395 430 339 299  3
395 445 306 389 393 412 363 456 363 418 334 293  4
461 450 309 394 394 299 347 457 363 411 336 292  5
395 447 520 480 393 389 300 455 379 427 329 289  6
457 449 482 451 392 306 347 454 363 418 330 289  7
461 452 308 397 394 301 291 455 347 409 332 292  8
459 456 585 543 395 619 525 457 611 540 333 292  9
395 454 541 492 396 534 467 458 568 511 335 298  10
462 451 308 396 396 304 347 456 363 415 337 15000  11

Chip#1
363 363 289 406 381 347 339 327 305 291 299 289  0
363 363 290 410 383 347 389 327 309 290 298 347  1
363 363 292 411 384 347 363 331 313 284 300 285  2
347 363 619 654 379 677 635 323 684 536 290 331  3
363 363 663 680 381 603 540 327 534 450 296 282  4
363 363 286 406 378 347 387 324 309 284 293 282  5
363 363 521 677 382 363 405 330 323 295 294 284  6
347 347 506 619 377 363 363 324 318 293 292 279  7
363 363 290 406 384 347 363 329 310 284 297 285  8
363 363 289 411 381 363 406 328 323 303 297 281  9
363 363 293 415 386 379 363 334 325 301 301 347  10
363 363 293 411 386 347 345 332 310 288 302 15000  11
Chip#2
395 447 304 393 393 297 289 456 347 411 335 291  0
462 447 302 395 397 300 290 456 347 413 337 297  1
411 450 303 393 395 301 287 458 363 411 338 296  2
462 449 303 396 400 447 401 459 379 430 337 296  3
395 447 303 390 393 413 379 456 363 422 335 291  4
460 448 304 394 391 298 347 454 363 409 334 290  5
462 452 524 484 396 363 303 458 379 430 337 292  6
411 452 486 455 397 312 297 460 379 424 332 293  7
463 451 309 395 398 302 347 458 363 412 336 298  8
460 452 589 551 397 635 527 457 611 543 335 296  9
462 454 543 493 394 535 464 457 565 510 334 300  10
411 453 309 396 399 303 347 459 363 415 341 15000  11

Chip#1
363 363 288 405 386 347 386 329 306 283 299 287  0
379 379 287 406 380 363 387 326 309 285 297 347  1
363 363 291 413 383 347 363 335 317 292 294 347  2
363 363 619 661 381 684 694 333 693 541 294 281  3
363 363 669 691 384 603 545 336 541 458 300 284  4
363 363 294 418 387 363 363 333 315 292 298 289  5
295 363 525 687 384 363 407 333 325 303 298 285  6
363 363 511 635 387 363 363 331 324 300 301 286  7
363 363 290 408 381 347 341 327 307 281 295 331  8
363 363 288 409 380 363 406 324 326 298 295 347  9
363 363 290 413 384 363 405 334 319 299 298 290  10
363 363 288 407 382 363 388 326 309 283 297 15000  11
Chip#2
457 446 303 393 394 299 347 455 347 408 333 293  0
411 453 308 396 398 303 295 458 363 414 338 302  1
457 447 304 391 393 299 287 455 347 407 331 296  2
459 448 302 390 393 437 396 454 379 426 333 293  3
459 451 306 396 395 414 382 453 379 422 334 298  4
460 449 306 394 396 300 291 455 347 413 335 292  5
460 452 526 486 392 391 303 456 379 429 336 295  6
395 451 484 453 393 311 297 453 363 421 335 296  7
395 446 301 389 392 299 289 454 347 409 331 294  8
461 453 587 547 395 635 527 455 611 542 335 293  9
411 454 545 497 395 536 465 455 567 510 337 301  10
462 449 308 392 393 300 347 455 363 412 338 15000  11
