
Chip#1
111 135 102 111 104 112 117 126 114 104 116 113  0
139 155 102 111 105 106 120 114 101 118 121 103  1
145 167 113 117 114 115 130 135 111 138 127 109  2
108 115 103 111 104 107 118 124 107 105 106 105  3
108 115 94 107 104 99 120 124 97 110 107 98  4
120 142 108 123 116 118 128 135 116 138 125 111  5
104 105 100 111 104 108 113 124 107 106 104 105  6
110 116 98 118 112 106 121 127 104 138 118 107  7
110 113 103 114 111 106 118 128 106 110 113 107  8
106 106 97 108 104 104 113 114 104 106 104 105  9
108 115 98 112 107 104 129 138 104 116 119 105  10
116 118 107 118 112 111 124 140 111 113 113 15000  11
Chip#2
133 129 122 116 117 118 117 114 118 123 115 122  0
142 153 124 115 121 115 118 117 150 147 116 123  1
137 142 124 120 117 122 125 118 131 131 116 121  2
122 121 119 114 113 121 113 115 120 131 114 115  3
127 131 118 122 119 122 119 118 126 131 119 123  4
122 127 122 120 120 117 120 118 121 120 114 118  5
125 123 122 120 117 117 119 117 122 131 111 117  6
123 126 120 118 125 119 121 116 123 131 112 115  7
123 128 123 124 125 122 124 120 126 131 118 124  8
127 130 128 122 122 122 124 121 129 131 116 123  9
126 126 118 120 118 116 120 117 116 131 114 118  10
131 135 123 124 127 119 127 120 125 131 115 15000  11

Chip#1
106 105 103 106 104 107 111 107 105 105 105 103  0
139 163 106 117 107 107 121 127 107 131 122 113  1
137 156 104 109 104 102 120 116 106 119 119 99  2
105 109 94 104 104 99 106 103 97 101 105 98  3
113 119 99 107 108 108 125 112 106 112 117 102  4
111 118 103 111 109 108 121 126 106 116 115 105  5
99 105 95 100 95 99 108 108 105 104 101 97  6
110 118 102 122 112 110 127 132 110 122 125 104  7
106 115 100 113 105 103 118 125 109 116 118 105  8
100 105 97 107 104 103 112 107 101 105 109 102  9
108 112 99 109 105 106 126 132 104 117 118 103  10
103 109 98 103 104 98 117 110 95 100 104 15000  11
Chip#2
118 120 106 105 109 107 105 103 109 113 107 109  0
141 153 119 114 115 117 117 114 118 131 116 113  1
133 134 119 119 114 115 117 113 114 118 114 115  2
118 121 110 111 113 113 110 108 114 117 111 112  3
112 122 112 111 109 112 112 111 117 121 114 114  4
110 118 107 106 108 107 106 100 107 113 107 106  5
118 120 116 118 114 113 114 112 120 120 114 115  6
123 126 119 116 118 117 117 112 118 131 119 117  7
116 122 123 118 119 115 117 113 118 131 118 115  8
118 118 111 112 112 113 110 107 112 108 110 112  9
134 130 122 119 123 122 120 121 126 131 122 119  10
133 127 124 120 118 118 120 112 125 131 118 15000  11

Chip#1
101 101 94 102 104 100 105 104 102 101 102 99  0
136 154 98 109 106 104 121 133 106 138 118 103  1
139 156 106 107 104 98 114 124 101 138 113 98  2
109 112 98 104 104 100 109 124 104 99 102 97  3
119 117 104 113 106 106 130 133 111 118 118 101  4
113 117 102 117 109 111 126 127 113 119 116 109  5
101 101 98 104 104 110 113 124 106 104 109 102  6
111 112 100 121 112 107 130 130 105 138 121 107  7
106 107 93 112 104 104 115 110 100 106 112 99  8
98 103 94 102 104 103 111 104 101 105 104 99  9
111 112 103 109 104 108 130 141 104 115 117 102  10
101 106 98 106 104 100 119 124 101 104 106 15000  11
Chip#2
119 123 104 107 113 111 106 109 116 113 108 110  0
142 160 112 108 109 112 112 108 114 131 114 112  1
128 131 111 107 108 111 110 103 116 117 115 112  2
123 126 114 114 119 118 112 118 120 131 118 114  3
120 125 110 107 117 113 114 114 116 118 119 114  4
114 122 110 108 109 112 112 107 109 115 111 108  5
111 116 110 108 109 108 114 107 117 113 107 109  6
126 123 114 119 117 116 116 116 118 122 118 110  7
118 120 114 111 117 109 108 109 118 117 114 108  8
124 126 118 118 118 115 119 113 120 117 118 113  9
127 128 116 122 118 116 117 120 122 131 120 110  10
133 129 122 118 122 117 120 113 125 131 119 15000  11

Chip#1
110 106 97 106 104 104 109 124 102 109 106 108  0
141 161 104 113 104 102 125 128 105 138 121 105  1
136 159 99 106 104 99 117 124 96 138 119 100  2
105 110 94 100 104 99 111 104 100 99 102 96  3
111 116 100 111 104 106 121 121 106 112 111 99  4
114 142 97 111 107 108 126 125 107 116 119 107  5
106 105 95 109 104 107 113 124 102 104 102 104  6
113 113 95 117 109 102 121 130 99 119 118 98  7
110 113 100 114 109 110 121 124 105 116 118 101  8
108 111 98 109 104 103 117 124 105 106 110 100  9
116 116 106 120 106 111 132 139 107 116 121 108  10
114 118 102 113 107 107 125 132 106 113 115 15000  11
Chip#2
122 122 110 107 116 108 108 107 113 112 107 112  0
137 153 112 108 113 107 114 109 118 131 112 110  1
130 139 116 114 120 115 116 113 117 131 116 115  2
116 122 112 108 115 109 112 108 113 131 110 112  3
115 117 112 110 108 111 110 109 111 131 112 113  4
118 126 116 120 119 116 110 109 122 131 112 119  5
112 120 112 111 113 109 108 112 112 113 110 112  6
114 117 110 111 113 109 108 103 108 120 111 106  7
114 118 107 111 118 109 105 102 107 117 112 109  8
123 123 116 116 119 118 114 112 114 131 116 114  9
119 122 107 115 117 108 108 112 116 116 107 110  10
123 120 110 111 118 109 116 105 111 115 109 15000  11

Chip#1
104 105 92 100 104 96 108 103 97 99 100 104  0
136 152 97 108 104 99 119 124 100 138 112 103  1
146 169 109 116 109 111 127 133 118 127 124 110  2
109 113 100 108 104 103 114 110 105 109 104 103  3
111 115 93 104 104 94 121 114 102 106 107 98  4
120 123 106 118 114 110 123 132 115 116 116 113  5
100 100 89 100 104 99 105 105 96 95 101 94  6
106 115 90 112 108 103 115 124 101 112 110 96  7
109 115 100 114 106 102 121 126 106 116 118 103  8
103 103 93 102 100 96 112 104 101 100 104 99  9
106 115 99 103 104 98 123 132 102 113 111 99  10
109 115 100 109 104 104 123 129 108 107 111 15000  11
Chip#2
127 126 112 115 114 113 113 111 116 115 112 113  0
141 160 116 115 116 116 119 114 120 131 120 117  1
127 134 115 115 112 111 112 108 114 117 114 112  2
116 122 114 112 111 112 117 111 113 131 111 114  3
116 120 111 112 113 111 119 108 112 115 115 114  4
116 120 114 110 111 112 113 105 112 131 111 113  5
114 123 114 112 110 109 114 104 113 120 110 110  6
123 121 115 119 120 119 117 109 121 123 120 118  7
112 116 110 114 111 108 110 107 113 131 114 110  8
119 120 111 114 114 116 114 111 114 112 112 113  9
120 123 112 115 113 108 114 108 111 112 111 112  10
135 127 120 123 123 119 120 116 125 131 119 15000  11

Chip#1
101 106 97 106 104 106 109 103 102 101 104 101  0
135 157 102 107 104 99 118 124 101 119 115 99  1
140 162 107 113 104 103 119 124 109 118 117 104  2
95 104 89 93 104 92 119 96 96 97 98 93  3
114 142 100 111 105 108 126 130 109 115 116 99  4
110 112 94 109 107 103 118 112 102 111 111 98  5
105 105 104 107 104 107 113 112 109 107 109 108  6
106 111 97 117 111 107 120 118 106 117 116 99  7
101 106 87 100 104 100 112 103 99 107 106 98  8
104 104 95 100 104 100 112 107 100 104 106 102  9
109 142 99 106 106 107 126 136 107 138 113 100  10
103 107 98 106 104 96 118 124 102 100 106 15000  11
Chip#2
123 127 114 115 111 113 114 111 117 131 118 118  0
138 153 116 115 113 109 110 111 122 131 119 115  1
126 132 114 111 109 108 109 107 112 131 112 112  2
112 115 110 110 104 111 106 107 112 117 111 113  3
116 121 114 112 111 111 110 112 117 131 114 119  4
112 123 116 116 115 112 112 113 117 131 114 119  5
119 121 119 118 115 115 116 117 117 131 115 118  6
120 122 115 119 118 113 114 109 117 118 116 119  7
120 116 108 115 114 109 109 104 112 117 115 114  8
120 108 110 110 109 108 106 107 108 131 110 110  9
116 121 112 116 117 112 110 111 114 117 110 112  10
128 131 118 119 121 118 123 111 126 131 118 15000  11
