
Chip#1
132 113 103 115 119 105 112 116 104 104 104 100  0
163 153 128 169 177 128 252 262 127 131 147 109  1
146 145 117 161 171 128 241 247 125 123 131 105  2
134 117 112 115 122 115 128 132 108 110 131 105  3
183 179 121 123 128 120 249 257 123 122 131 103  4
165 152 119 123 130 124 244 252 126 121 131 102  5
132 110 115 109 109 111 128 119 102 104 101 102  6
169 155 121 128 121 125 258 249 122 126 131 103  7
151 138 115 119 119 122 242 236 114 119 131 105  8
132 125 115 116 115 113 141 124 110 114 131 107  9
166 157 125 123 124 133 263 235 118 137 131 106  10
152 139 117 117 114 127 246 224 112 131 131 15000  11
Chip#2
131 114 108 103 113 109 107 102 89 107 108 118  0
131 130 110 123 148 116 499 529 89 117 115 117  1
140 175 147 154 204 158 1003 1002 116 144 128 128  2
141 120 113 107 123 122 176 178 116 113 102 115  3
140 166 147 124 145 158 586 757 100 134 126 123  4
141 187 128 124 149 142 643 728 101 132 119 119  5
141 120 121 119 132 158 146 133 101 118 112 121  6
140 160 147 124 142 158 586 674 98 125 121 115  7
141 157 118 112 134 123 417 450 98 115 106 117  8
112 121 116 109 119 126 181 194 98 112 110 118  9
140 188 163 116 134 121 1041 1254 120 144 127 122  10
141 155 119 107 121 114 440 567 97 122 117 15000  11

Chip#1
132 115 105 115 118 104 116 120 106 112 110 99  0
155 148 124 168 174 117 251 262 119 122 131 101  1
143 139 120 158 171 124 242 246 122 124 131 103  2
118 122 114 122 125 115 131 134 114 114 131 107  3
175 158 115 118 119 113 241 249 119 112 107 94  4
156 150 114 116 122 115 239 245 120 117 131 96  5
115 117 112 112 109 112 127 129 110 107 106 101  6
171 157 121 128 127 123 266 252 125 126 131 107  7
153 142 111 121 121 123 248 240 118 121 131 101  8
121 119 111 112 112 109 133 125 109 114 107 101  9
163 152 121 115 115 124 258 230 114 132 131 102  10
155 144 119 116 121 129 251 233 122 140 147 15000  11
Chip#2
112 112 113 103 110 105 106 104 97 112 106 112  0
112 130 109 123 138 110 504 532 97 119 110 110  1
141 168 125 155 190 129 1002 996 105 131 123 113  2
141 121 113 112 125 121 175 162 105 114 104 114  3
141 154 116 119 138 122 578 674 98 124 119 110  4
140 191 133 134 149 158 651 733 108 131 121 124  5
141 118 121 119 125 132 141 137 101 114 111 117  6
141 167 126 124 138 131 578 674 108 127 120 113  7
141 156 124 119 132 128 420 455 97 120 116 113  8
112 123 114 108 116 123 189 208 97 118 112 118  9
141 176 122 105 119 109 1071 1301 104 131 115 102  10
141 145 114 110 118 111 449 579 104 117 116 15000  11

Chip#1
132 115 114 119 122 109 124 119 106 109 131 103  0
159 159 128 169 180 129 261 265 125 129 147 108  1
147 147 121 158 173 131 246 246 125 124 147 106  2
111 114 103 106 111 98 116 122 95 100 104 94  3
178 179 122 129 125 122 246 257 114 113 131 100  4
155 144 110 112 116 111 235 244 112 107 109 98  5
111 117 108 116 109 109 131 123 108 109 110 106  6
158 148 116 116 119 117 254 242 109 116 131 95  7
145 139 107 112 108 114 241 234 110 114 131 98  8
109 113 105 103 108 105 130 119 104 105 102 100  9
164 152 120 113 115 127 261 234 110 124 131 103  10
148 137 112 110 112 121 240 221 106 123 117 15000  11
Chip#2
112 115 113 107 109 109 107 104 104 109 106 114  0
141 136 116 129 145 120 507 537 104 120 114 115  1
141 171 126 153 193 125 998 990 106 132 125 117  2
112 125 118 114 121 125 176 178 106 115 106 118  3
112 154 116 112 130 121 578 674 106 121 109 109  4
140 184 130 125 145 158 644 724 100 134 119 114  5
141 120 121 119 123 127 142 136 100 115 106 112  6
141 163 125 121 135 129 586 674 101 129 117 109  7
141 154 120 116 132 129 417 455 96 119 109 112  8
112 120 121 110 113 121 188 209 95 115 104 109  9
140 185 147 118 124 121 1098 1322 114 138 126 113  10
141 153 120 109 116 111 453 584 96 113 112 15000  11

Chip#1
132 120 110 111 124 113 119 119 110 112 131 106  0
153 147 120 167 171 127 251 261 120 122 131 98  1
141 144 119 159 170 127 248 245 125 122 131 101  2
115 123 115 118 122 114 130 127 107 114 109 102  3
174 179 115 121 120 116 245 254 118 113 131 101  4
158 148 116 122 125 121 241 252 122 115 131 101  5
117 122 116 113 114 116 133 126 109 112 112 102  6
160 151 116 118 122 125 260 244 116 123 131 101  7
155 143 117 119 121 127 250 239 120 126 131 107  8
117 119 116 117 112 115 138 129 112 114 110 108  9
168 154 129 122 120 130 270 241 116 138 131 111  10
144 137 110 109 112 120 245 224 108 124 120 15000  11
Chip#2
112 106 109 102 106 105 105 102 95 107 102 113  0
141 130 113 123 147 108 501 535 96 118 114 110  1
141 172 133 152 197 131 1002 1004 110 134 125 115  2
141 118 115 110 123 116 174 178 110 113 105 112  3
141 161 125 124 139 133 578 690 101 129 123 110  4
140 188 147 126 153 158 648 734 106 131 126 120  5
141 118 116 109 123 126 136 131 106 107 103 115  6
141 163 124 119 140 126 586 690 104 125 119 114  7
141 160 128 126 133 129 421 459 102 120 115 118  8
112 117 115 109 111 115 183 213 102 109 105 112  9
140 182 147 116 132 120 1114 1333 117 139 128 118  10
140 156 128 113 128 117 461 593 105 127 125 15000  11

Chip#1
117 119 110 113 116 111 121 118 109 107 111 101  0
161 158 125 169 181 129 258 266 131 132 147 106  1
144 145 120 158 169 128 247 247 121 127 131 106  2
121 114 111 115 117 111 130 131 110 107 106 103  3
176 179 122 128 125 116 247 260 123 115 131 102  4
153 143 111 119 119 113 236 247 115 114 111 98  5
113 113 107 112 108 111 124 120 110 105 104 102  6
169 155 125 129 124 130 262 252 122 126 131 105  7
151 140 116 122 125 120 247 242 116 121 131 105  8
115 123 114 116 112 114 140 126 110 114 111 107  9
169 158 120 121 125 128 265 241 120 133 131 109  10
146 134 115 113 108 122 247 228 109 126 131 15000  11
Chip#2
112 112 108 102 108 110 109 108 105 109 105 110  0
141 135 113 121 144 114 504 536 105 119 111 112  1
140 167 125 148 189 125 997 995 104 132 120 112  2
141 127 116 111 125 120 179 162 104 117 110 115  3
141 163 119 118 138 129 578 690 101 128 119 113  4
140 194 147 127 150 158 645 735 102 131 121 110  5
141 120 121 119 125 131 142 136 98 115 114 117  6
141 168 120 124 139 129 586 690 102 127 120 114  7
141 157 124 120 135 127 419 453 102 120 115 109  8
88 111 108 104 106 115 181 178 102 108 100 104  9
128 180 126 113 123 117 1098 1337 110 133 120 113  10
144 154 125 114 124 121 464 589 102 125 120 15000  11

Chip#1
132 120 114 115 122 114 121 122 110 108 131 105  0
159 152 122 164 176 125 258 266 123 122 131 105  1
147 148 121 162 177 129 245 256 123 128 147 108  2
111 108 98 109 108 105 117 118 97 99 99 96  3
180 179 120 124 127 120 247 257 121 115 131 100  4
166 152 119 122 125 119 247 256 120 117 131 108  5
110 113 111 105 108 109 124 118 104 105 106 99  6
165 151 119 122 118 120 262 249 119 121 131 102  7
156 147 120 123 122 125 252 241 119 126 131 103  8
132 116 112 111 116 113 137 129 110 110 131 109  9
163 153 119 117 115 127 266 234 110 128 131 103  10
151 135 112 112 112 121 250 230 110 123 131 15000  11
Chip#2
112 112 113 109 109 113 115 110 102 112 108 119  0
112 132 118 124 147 114 508 541 102 119 114 112  1
128 166 119 147 189 120 994 1002 101 126 115 108  2
112 123 118 116 124 121 180 162 101 113 110 116  3
128 161 120 120 138 127 586 690 101 127 122 114  4
144 186 127 123 145 140 645 738 100 127 117 109  5
128 120 122 120 132 131 147 139 98 118 109 115  6
128 166 122 127 140 129 586 690 102 126 120 115  7
128 161 121 118 134 127 426 458 100 118 114 114  8
128 123 118 116 119 122 192 211 97 117 115 119  9
128 182 131 114 129 119 1114 1353 116 135 122 109  10
128 154 115 109 114 115 461 598 96 121 114 15000  11
