
Chip#1
108 110 99 107 104 104 112 116 101 103 104 107  0
139 158 104 109 109 104 123 121 105 119 122 105  1
145 162 108 116 108 106 124 128 106 138 118 102  2
103 104 92 100 104 95 107 108 92 97 100 96  3
115 117 102 111 109 107 125 130 107 111 116 102  4
110 142 100 109 110 106 121 127 104 111 116 105  5
110 107 104 108 104 106 111 112 104 105 104 104  6
116 142 103 126 118 107 130 134 106 138 121 105  7
103 106 93 111 104 99 114 114 99 106 112 99  8
108 112 98 106 104 110 114 124 108 110 112 108  9
114 119 100 109 109 104 130 141 110 117 119 109  10
111 115 104 113 111 110 127 136 105 106 115 15000  11
Chip#2
130 126 114 111 115 116 116 113 113 136 106 113  0
141 137 116 111 115 115 116 109 116 117 112 113  1
137 142 122 115 118 119 124 113 117 131 118 115  2
123 125 116 115 118 119 117 120 121 131 114 118  3
131 127 123 124 123 121 125 118 125 131 120 123  4
118 125 119 119 123 121 116 116 120 131 115 119  5
122 122 116 116 117 117 118 121 118 131 112 117  6
134 126 122 151 125 121 124 120 126 147 119 122  7
115 120 114 111 114 113 113 108 116 131 110 110  8
126 125 115 114 118 118 119 112 116 131 111 117  9
131 126 118 123 125 117 124 122 122 131 112 114  10
134 127 118 123 123 126 125 116 121 131 114 15000  11

Chip#1
106 116 99 104 104 110 112 124 102 109 107 111  0
139 159 106 114 107 106 129 128 106 138 122 110  1
145 166 111 109 108 107 126 133 107 119 122 108  2
104 111 98 106 104 102 113 124 104 106 104 102  3
119 142 104 116 112 114 130 136 110 118 121 108  4
106 110 93 106 104 103 114 115 97 103 107 101  5
106 111 103 108 105 111 117 125 105 109 107 108  6
114 142 106 123 112 110 127 135 113 138 123 107  7
113 116 102 117 111 108 119 118 109 116 116 107  8
104 107 98 102 104 103 107 109 104 103 105 107  9
106 142 99 107 104 103 125 131 106 138 113 98  10
109 113 100 113 104 99 117 119 102 106 110 15000  11
Chip#2
126 131 112 112 113 112 119 109 118 131 119 114  0
138 137 112 108 110 109 112 108 117 131 110 113  1
127 137 111 112 114 115 116 107 116 131 112 117  2
122 128 116 119 115 121 120 118 118 131 119 122  3
121 123 115 111 113 115 117 113 117 131 118 119  4
120 118 111 111 113 108 112 104 112 115 110 112  5
119 121 115 114 114 112 113 104 114 112 109 113  6
123 129 120 120 117 118 121 114 121 131 119 117  7
118 122 112 115 117 113 109 105 109 117 116 117  8
115 118 114 112 115 116 112 105 114 131 110 113  9
124 123 111 115 113 112 116 112 113 131 111 110  10
124 125 116 112 117 112 110 107 113 116 110 15000  11

Chip#1
103 104 99 107 104 102 108 105 100 105 105 99  0
144 156 107 116 106 104 123 128 109 132 122 108  1
145 159 107 113 105 106 119 126 107 132 118 104  2
106 113 99 106 104 99 111 104 101 106 107 98  3
115 119 105 117 105 110 126 135 105 119 119 103  4
119 135 108 118 111 119 126 130 114 138 119 108  5
106 107 98 109 104 102 109 124 104 105 102 103  6
110 113 103 120 112 110 124 130 109 124 118 105  7
116 115 106 116 105 110 120 126 107 118 116 108  8
112 112 99 108 104 110 114 125 111 111 111 103  9
114 117 100 111 104 108 131 136 104 116 116 103  10
110 111 100 109 104 104 120 132 100 109 111 15000  11
Chip#2
112 120 106 106 108 104 106 103 104 110 103 109  0
137 136 116 111 117 113 116 111 114 131 115 117  1
124 137 111 112 114 109 114 111 116 131 111 115  2
111 121 110 108 114 112 112 112 113 113 112 114  3
112 122 108 110 114 115 114 116 111 131 115 115  4
115 120 112 110 115 109 108 111 113 111 108 114  5
115 116 108 105 109 109 106 107 111 131 105 110  6
114 118 110 111 111 109 109 107 114 131 116 113  7
115 122 114 115 118 113 112 111 116 131 108 117  8
118 125 118 114 118 118 114 111 116 116 118 112  9
124 130 118 119 125 117 121 113 120 131 119 119  10
125 128 112 112 114 116 113 112 114 117 111 15000  11

Chip#1
100 106 92 102 104 104 105 102 92 103 107 98  0
139 157 103 116 106 104 121 130 100 123 118 98  1
141 165 111 111 107 111 121 128 106 138 119 103  2
103 112 97 104 104 102 106 104 101 105 106 101  3
115 121 107 116 107 112 127 134 105 121 119 105  4
111 142 97 108 104 106 118 126 102 112 113 100  5
104 112 106 112 104 111 114 114 105 109 112 109  6
109 106 92 114 106 104 117 125 101 116 107 99  7
113 118 107 117 112 111 120 128 106 117 117 110  8
104 104 97 103 104 103 113 110 99 100 105 102  9
109 112 94 109 104 110 125 135 99 117 116 96  10
110 117 103 114 108 111 124 129 104 113 112 15000  11
Chip#2
120 120 110 105 112 111 110 103 108 112 102 106  0
128 134 114 106 110 108 109 100 112 117 107 108  1
126 127 108 104 109 105 106 102 105 116 107 108  2
126 113 106 104 109 107 108 103 116 117 107 108  3
120 121 112 112 116 112 117 112 116 131 115 115  4
120 125 119 122 121 118 120 116 122 131 118 115  5
114 116 112 110 110 107 112 104 108 131 105 108  6
120 120 116 112 113 115 112 103 112 131 114 110  7
120 126 123 116 118 119 121 112 126 131 120 114  8
118 118 114 108 116 109 113 107 114 131 111 110  9
123 123 116 115 117 113 110 111 117 131 112 110  10
129 130 118 118 123 116 117 113 118 131 111 15000  11

Chip#1
105 109 102 109 104 104 109 105 106 105 109 104  0
145 162 106 117 108 110 124 128 106 133 122 105  1
144 165 108 112 107 110 119 127 109 124 117 107  2
104 111 98 107 104 104 108 107 104 107 111 98  3
120 118 103 113 105 111 126 132 106 118 115 101  4
109 117 103 111 104 110 118 115 105 116 112 103  5
104 106 97 106 104 108 106 110 102 105 105 99  6
114 115 103 120 109 111 121 133 105 122 122 104  7
115 116 100 117 106 106 114 127 105 119 117 105  8
103 106 95 104 104 104 106 107 100 105 102 98  9
115 121 106 113 107 114 130 138 110 123 119 104  10
104 106 95 104 104 99 117 115 97 106 106 15000  11
Chip#2
128 131 111 111 113 113 114 111 117 131 111 114  0
137 139 115 110 113 112 109 109 113 131 112 110  1
130 136 112 108 110 112 110 109 112 131 107 112  2
116 123 110 107 110 113 109 108 113 131 107 104  3
124 129 118 116 117 115 117 116 121 131 112 118  4
114 123 110 107 113 109 104 104 109 113 108 106  5
116 117 111 108 110 111 112 109 114 131 106 105  6
120 123 115 112 115 116 114 111 116 131 115 114  7
124 130 120 120 122 119 114 117 120 131 120 118  8
123 125 120 116 115 118 119 114 117 131 116 118  9
122 127 111 112 113 116 114 108 111 113 111 108  10
127 127 115 116 121 118 116 112 117 131 112 15000  11

Chip#1
100 106 98 106 104 104 111 107 99 105 106 104  0
141 162 100 113 106 107 125 107 108 126 115 104  1
135 160 103 107 104 99 114 124 100 113 113 98  2
112 160 107 111 104 110 115 126 107 111 111 109  3
118 119 95 109 104 108 121 125 106 115 116 96  4
112 142 99 112 105 110 119 128 110 138 111 100  5
95 105 94 102 104 103 105 104 96 99 100 102  6
113 142 106 123 114 115 123 134 110 131 121 105  7
104 110 95 109 104 100 106 110 91 107 109 93  8
105 111 102 108 104 106 112 110 101 107 107 101  9
118 135 103 112 105 112 132 139 110 116 118 104  10
113 121 102 113 104 107 124 128 106 115 117 15000  11
Chip#2
119 125 110 108 109 115 109 105 111 131 108 112  0
137 153 118 110 111 112 114 111 118 131 115 115  1
131 140 115 114 115 115 113 109 121 131 116 117  2
118 121 112 116 113 117 108 109 114 113 112 114  3
115 122 115 115 113 115 119 114 116 120 115 117  4
118 125 116 115 117 118 114 108 116 131 114 112  5
114 118 115 105 109 111 108 107 112 131 111 112  6
123 123 119 115 119 118 114 112 117 131 119 119  7
114 117 114 108 113 111 109 105 111 131 114 112  8
116 118 115 111 110 112 112 108 111 131 115 113  9
128 134 120 122 121 119 120 120 121 131 118 115  10
124 127 116 118 119 118 119 111 121 131 118 15000  11
