
Chip#1
110 106 105 140 164 106 103 99 101 98 99 93  0
132 119 129 444 509 184 124 112 104 114 131 107  1
106 112 119 407 492 168 107 111 101 107 110 94  2
132 112 114 179 198 116 111 111 112 113 131 105  3
113 110 135 484 485 168 115 114 103 108 109 102  4
117 115 126 381 407 136 115 107 108 115 110 106  5
184 189 115 123 124 111 109 104 104 112 131 101  6
534 557 180 119 122 112 115 112 108 112 131 101  7
420 416 142 115 118 107 109 110 101 112 107 100  8
194 208 116 107 108 106 106 101 102 103 102 98  9
465 498 173 112 109 107 110 108 103 113 109 102  10
359 362 131 105 106 104 102 100 101 108 131 15000  11
Chip#2
112 100 97 97 105 104 101 96 99 101 98 98  0
112 101 103 301 448 113 101 100 99 104 96 102  1
112 102 103 534 800 133 101 102 99 104 100 104  2
128 106 107 130 159 110 105 104 100 104 99 113  3
112 104 103 374 576 121 106 104 99 106 97 105  4
128 107 103 466 698 126 107 102 100 108 103 105  5
128 121 108 109 119 109 104 104 100 105 104 108  6
309 808 200 102 105 104 105 104 99 106 104 103  7
275 726 200 95 103 102 104 97 100 96 98 103  8
128 156 108 95 103 99 102 100 99 100 98 109  9
297 835 248 105 109 106 110 107 99 106 104 110  10
196 476 163 97 99 97 100 97 99 100 96 15000  11

Chip#1
108 106 106 144 151 111 102 104 106 107 105 101  0
116 117 131 457 517 168 116 122 109 114 117 107  1
109 110 120 411 502 168 116 111 103 110 109 99  2
106 102 110 171 192 111 109 111 103 109 131 102  3
113 113 136 484 491 168 117 116 109 118 112 100  4
115 112 128 387 413 137 116 114 113 117 110 103  5
186 184 111 119 120 113 110 104 104 107 101 99  6
541 569 178 119 115 108 114 110 106 107 109 100  7
428 436 140 113 117 107 116 112 106 112 109 96  8
193 214 119 111 111 111 106 106 104 110 104 100  9
467 498 173 108 105 105 107 104 100 108 102 95  10
365 371 142 115 114 109 114 109 107 118 131 15000  11
Chip#2
112 105 102 102 104 102 101 102 99 100 99 104  0
112 101 101 305 451 110 102 97 99 102 99 104  1
112 110 106 544 817 132 107 107 99 105 102 107  2
112 108 103 128 158 108 102 104 99 105 98 110  3
112 105 100 382 579 115 105 100 99 100 100 100  4
112 114 109 458 715 127 114 107 99 108 108 110  5
81 117 97 104 114 99 102 101 99 96 96 103  6
315 829 204 102 104 103 107 109 99 106 108 107  7
284 717 204 102 104 102 105 100 99 102 103 104  8
112 160 104 97 100 100 102 96 99 101 97 104  9
294 837 245 105 103 103 102 103 99 105 102 105  10
199 484 147 94 96 99 96 95 99 99 93 15000  11

Chip#1
106 104 105 136 164 106 101 102 100 95 100 96  0
115 116 129 455 516 184 120 112 106 108 131 103  1
103 104 111 407 498 168 110 107 97 100 105 93  2
98 93 100 164 185 101 102 95 90 95 98 92  3
116 115 134 484 496 146 116 114 101 114 112 98  4
110 106 117 382 420 131 109 107 101 104 105 101  5
186 185 111 118 119 104 109 107 100 108 105 99  6
547 572 178 115 115 109 115 107 102 112 115 96  7
423 432 139 110 108 104 102 102 97 104 106 96  8
182 201 103 100 101 99 101 97 93 94 99 89  9
473 508 185 115 116 106 116 107 104 119 131 102  10
378 374 139 116 117 107 112 115 107 119 131 15000  11
Chip#2
128 105 106 100 106 104 105 97 100 99 104 108  0
112 110 109 312 463 120 106 104 99 106 103 112  1
112 110 107 550 819 136 109 109 99 104 105 104  2
112 108 104 129 160 109 98 102 99 102 100 109  3
112 111 103 382 584 115 106 101 99 102 102 103  4
112 108 107 466 707 121 100 103 99 104 103 105  5
112 124 104 110 121 109 103 108 100 107 108 108  6
313 837 202 103 104 98 102 103 99 99 103 97  7
295 744 202 108 105 108 107 102 100 104 110 108  8
128 162 113 104 103 109 103 97 99 102 99 107  9
288 832 242 95 98 98 100 97 99 98 97 97  10
203 489 163 103 101 100 100 93 99 101 105 15000  11

Chip#1
102 110 107 140 164 106 105 101 103 107 104 99  0
109 113 120 444 507 184 109 107 97 107 131 95  1
110 116 117 410 504 168 120 110 107 112 131 106  2
98 99 105 167 185 99 101 96 96 95 95 93  3
111 112 135 484 494 168 117 112 106 114 131 103  4
132 113 126 388 424 133 111 114 106 113 131 103  5
181 185 110 116 119 105 106 100 103 103 101 96  6
555 579 182 117 115 106 114 110 107 114 114 98  7
436 448 142 113 111 107 110 107 102 108 107 98  8
192 209 112 108 105 104 103 99 97 103 99 100  9
472 501 181 117 112 107 110 107 107 118 114 101  10
361 365 130 109 107 101 104 101 97 113 109 15000  11
Chip#2
112 106 104 108 105 106 105 98 99 106 100 110  0
112 100 103 306 451 111 98 102 99 105 102 109  1
112 111 107 544 816 133 109 106 100 106 108 108  2
85 102 103 124 158 103 96 98 99 104 100 102  3
112 110 101 376 583 121 105 106 99 105 100 107  4
112 105 96 449 702 117 100 102 99 104 102 100  5
128 123 106 107 119 103 104 101 100 102 100 108  6
324 846 209 105 114 106 110 112 99 108 108 109  7
297 750 179 100 108 106 110 109 99 107 109 108  8
128 155 107 95 99 100 97 95 99 96 103 107  9
287 826 242 93 95 98 97 95 99 98 99 100  10
204 487 163 97 106 105 103 98 99 105 109 15000  11

Chip#1
100 104 100 132 147 100 103 95 97 93 99 93  0
111 113 128 442 507 168 116 112 100 112 111 95  1
110 112 120 410 497 168 116 111 107 108 116 96  2
108 105 111 173 192 113 106 104 101 99 107 95  3
108 108 131 484 490 143 111 107 100 104 105 94  4
112 106 122 377 405 129 112 109 99 107 109 93  5
184 186 115 116 122 106 110 103 100 99 105 100  6
553 577 183 115 111 106 107 106 101 105 105 94  7
434 453 144 113 113 107 111 111 102 109 114 95  8
193 212 114 105 106 105 105 101 101 100 104 95  9
474 502 182 112 118 109 115 110 106 115 131 102  10
365 371 134 108 103 100 111 108 100 109 131 15000  11
Chip#2
112 105 102 99 103 102 100 95 99 100 100 105  0
112 111 103 307 455 113 105 101 99 107 105 108  1
128 113 103 541 797 138 107 107 99 107 110 110  2
82 101 96 119 150 99 97 95 99 100 96 107  3
128 113 107 388 577 125 112 106 100 106 109 112  4
112 105 98 446 695 120 101 97 99 100 97 104  5
128 113 106 103 113 103 101 98 99 96 98 109  6
319 838 203 98 103 105 101 103 99 104 103 104  7
292 747 203 104 109 105 112 106 99 108 108 113  8
112 154 103 94 100 100 101 97 99 96 97 104  9
288 838 242 99 103 102 107 99 99 102 103 107  10
206 496 163 103 104 103 111 103 100 107 110 15000  11
