
Chip#1
188 150 111 112 111 117 117 116 114 117 118 154  0
127 116 441 560 120 300 648 136 171 510 132 124  1
110 121 3559 560 206 3363 648 423 1888 510 794 121  2
123 125 929 1493 134 1141 2576 171 831 2877 333 128  3
112 106 115 129 112 121 127 116 128 180 121 108  4
111 113 298 325 119 223 312 130 1302 3426 363 118  5
109 116 171 189 118 176 221 122 877 2481 266 115  6
108 106 111 119 111 115 120 115 119 117 114 106  7
104 107 250 290 112 206 233 115 116 107 108 107  8
111 110 208 200 109 201 229 117 112 113 111 110  9
111 112 112 118 115 112 115 111 116 111 113 112  10
117 111 109 115 118 114 115 113 114 112 114 15000  11
Chip#2
117 119 111 115 116 109 106 110 109 109 110 117  0
112 112 107 107 110 108 107 106 102 105 107 108  1
112 112 105 113 113 104 106 105 102 105 111 108  2
100 105 122 437 227 111 539 396 101 363 434 108  3
109 113 174 711 424 143 721 524 115 426 469 120  4
107 106 107 170 131 107 133 123 101 111 115 105  5
112 113 116 269 182 109 117 113 110 114 124 109  6
103 106 142 575 381 102 120 119 100 111 124 101  7
106 108 111 192 153 108 107 112 107 107 110 105  8
106 110 109 110 112 109 111 114 108 110 121 111  9
107 106 106 107 113 107 120 124 107 118 139 112  10
104 103 103 102 107 97 102 106 99 99 109 15000  11

Chip#1
144 120 104 114 112 114 113 110 112 116 114 125  0
114 106 264 340 109 201 376 114 137 300 114 106  1
103 106 1817 2509 151 1734 3544 261 1003 3044 444 101  2
109 109 511 807 117 614 1346 131 491 1480 208 106  3
105 104 106 115 109 108 116 108 118 137 103 99  4
105 106 208 222 109 166 216 109 716 1799 229 106  5
111 107 138 154 115 144 176 113 507 1308 181 107  6
103 99 99 107 110 106 112 104 109 103 100 98  7
102 101 177 187 102 154 178 108 108 96 100 94  8
109 109 155 159 112 157 184 112 111 109 103 106  9
103 99 95 101 98 99 102 97 103 99 91 100  10
99 97 96 103 103 99 105 98 101 100 101 10000  11
Chip#2
115 118 111 108 106 108 104 103 107 104 105 111  0
111 106 101 102 102 101 98 98 96 101 102 108  1
116 108 109 105 108 108 104 106 100 109 111 112  2
113 115 133 443 238 124 563 406 112 370 438 121  3
109 104 169 701 416 131 715 524 108 419 462 114  4
106 109 111 166 125 107 131 118 101 113 115 106  5
109 108 119 265 181 109 114 113 106 114 123 110  6
110 103 143 578 389 109 122 123 101 117 128 109  7
106 111 111 188 149 109 107 109 107 108 107 109  8
113 113 112 110 114 111 111 119 110 112 123 115  9
116 110 112 110 114 109 123 124 107 121 139 114  10
111 110 106 107 110 108 105 111 102 104 111 15000  11

Chip#1
124 114 102 107 107 105 108 107 106 107 103 115  0
109 105 179 230 109 152 244 112 123 222 109 106  1
99 102 985 1328 122 918 1845 186 565 1570 277 100  2
98 105 318 471 104 369 730 121 290 806 153 107  3
105 100 103 107 109 109 112 107 107 116 102 106  4
97 91 150 163 100 126 155 98 411 974 153 92  5
99 100 116 130 103 116 137 105 303 750 153 98  6
96 101 96 106 103 101 106 104 108 95 96 94  7
103 107 149 155 110 140 150 107 109 103 102 104  8
95 99 128 129 103 124 141 97 104 91 100 96  9
95 95 92 95 96 92 99 97 99 90 87 94  10
101 96 94 98 98 98 99 100 99 92 97 7500  11
Chip#2
113 118 109 103 110 106 105 105 106 108 106 111  0
121 123 114 113 113 108 112 110 108 111 113 115  1
116 114 110 116 112 112 116 113 108 113 114 109  2
101 101 122 433 224 111 539 392 101 361 428 108  3
106 105 170 708 418 131 714 523 108 418 460 115  4
109 109 111 171 128 103 135 117 104 113 110 104  5
110 109 111 262 180 108 112 113 101 110 119 106  6
109 110 142 577 389 103 120 124 101 114 131 109  7
115 118 116 196 157 114 116 117 112 111 119 116  8
111 109 110 110 111 109 108 111 105 112 116 106  9
109 106 98 104 107 99 114 121 100 111 128 108  10
112 111 110 109 110 107 111 109 104 108 111 15000  11

Chip#1
124 115 102 106 111 104 111 109 112 104 106 112  0
106 109 186 234 109 148 245 112 124 206 107 105  1
95 100 962 1322 122 916 1841 177 559 1568 266 95  2
93 101 318 460 110 361 728 113 286 807 153 96  3
108 104 105 109 104 112 111 109 111 122 103 99  4
101 102 160 170 109 140 168 111 428 974 163 101  5
102 106 125 136 112 121 142 112 312 750 153 100  6
105 107 105 114 112 106 115 111 108 107 101 101  7
102 106 147 158 108 129 146 102 109 103 98 102  8
110 111 136 141 110 128 149 105 106 104 106 104  9
103 110 105 110 104 105 109 107 108 100 102 100  10
105 101 98 104 102 99 109 101 100 99 98 7500  11
Chip#2
116 115 110 105 108 104 100 105 106 105 107 112  0
117 114 105 107 111 106 106 106 108 107 109 108  1
117 108 105 107 106 108 104 104 101 104 110 106  2
110 105 132 438 232 121 539 401 107 366 434 114  3
105 104 168 702 418 129 712 527 108 422 463 112  4
113 115 112 172 135 113 138 124 115 121 121 111  5
112 108 115 267 181 112 118 118 112 113 121 110  6
111 105 148 580 392 113 125 131 107 123 133 110  7
110 105 107 187 147 107 108 107 105 107 107 106  8
107 106 105 104 107 104 107 113 104 107 115 106  9
113 106 111 108 111 112 120 126 106 121 136 116  10
110 103 107 104 106 104 104 107 105 103 109 15000  11

Chip#1
122 107 99 102 100 99 104 95 104 101 95 109  0
104 99 177 222 105 145 239 101 118 206 98 99  1
99 99 969 1318 118 922 1843 178 565 1581 274 94  2
104 100 313 462 107 367 732 114 289 816 153 105  3
102 105 102 106 102 104 108 103 107 117 102 100  4
98 100 153 166 105 133 162 104 422 974 158 99  5
99 101 117 129 105 118 137 107 318 734 143 100  6
98 94 98 98 102 100 104 101 102 100 92 98  7
101 101 145 151 102 132 143 104 103 100 100 102  8
96 97 126 124 96 123 137 100 101 95 95 96  9
95 99 99 102 100 101 104 94 103 96 96 96  10
106 107 103 107 108 108 107 102 104 105 102 7500  11
Chip#2
117 115 111 108 107 108 104 102 106 104 107 108  0
117 111 107 108 108 103 105 102 104 104 106 106  1
117 110 107 112 111 112 108 105 107 105 116 109  2
104 101 125 433 228 113 539 393 99 358 432 111  3
112 109 177 719 430 143 725 530 113 429 465 119  4
115 115 114 173 136 113 139 123 112 117 126 110  5
111 105 114 265 181 107 113 111 105 113 119 104  6
110 106 148 580 393 107 122 125 106 115 135 105  7
112 109 109 192 152 113 107 107 108 104 110 108  8
118 111 111 109 111 114 116 116 111 112 125 111  9
118 114 112 114 116 112 124 127 111 125 139 115  10
113 106 109 104 110 108 110 110 107 105 110 15000  11

Chip#1
120 112 103 106 108 100 105 103 104 103 105 110  0
104 99 176 222 109 151 243 110 117 206 109 101  1
96 102 980 1323 121 929 1851 181 558 1581 273 94  2
98 104 313 461 105 365 726 114 288 810 153 99  3
106 106 108 114 112 111 114 110 112 129 109 104  4
98 105 158 165 107 128 162 108 422 990 162 99  5
101 97 117 127 104 120 135 103 308 750 153 95  6
97 97 98 99 103 100 102 102 101 101 98 89  7
97 97 139 147 104 132 141 107 101 97 100 93  8
101 101 125 131 103 130 142 103 102 100 98 102  9
106 104 98 107 103 98 111 107 107 103 96 100  10
99 101 100 107 103 99 108 107 104 104 101 7500  11
Chip#2
118 114 110 109 117 107 104 106 105 107 110 112  0
120 115 110 108 111 111 108 104 102 107 107 111  1
116 111 105 107 113 107 107 107 105 110 107 109  2
100 99 121 433 227 109 539 392 101 361 428 105  3
111 109 174 711 422 133 722 531 110 420 464 117  4
113 110 110 172 130 111 136 123 107 115 116 106  5
110 104 110 262 175 107 113 114 102 113 118 106  6
110 115 148 580 393 109 124 128 105 118 129 109  7
115 117 116 198 157 116 116 118 115 112 112 112  8
118 118 114 115 118 116 118 121 113 117 125 119  9
113 113 109 107 118 106 122 126 107 121 135 111  10
115 113 111 113 114 106 111 111 107 110 110 15000  11
