
Chip#1
104 106 100 103 100 104 100 100 104 96 96 95  0
108 104 106 109 103 112 116 104 106 104 102 102  1
109 102 117 133 103 126 138 109 119 142 105 101  2
102 106 107 116 102 112 120 103 114 122 101 98  3
105 102 118 124 101 115 127 105 109 101 102 102  4
105 105 464 474 104 487 803 118 113 125 96 100  5
103 102 242 252 104 308 467 110 116 118 97 98  6
115 112 119 127 112 121 119 111 116 111 109 104  7
98 102 570 549 95 317 369 102 99 91 94 93  8
99 99 383 343 95 305 359 102 103 93 92 95  9
106 102 99 108 103 104 111 98 103 96 100 100  10
110 107 105 107 102 111 106 100 106 97 96 15000  11
Chip#2
106 108 106 109 107 108 105 106 101 98 107 108  0
113 117 114 115 116 114 113 114 107 105 107 116  1
113 117 111 113 115 112 113 112 107 105 107 115  2
111 119 115 120 118 112 120 118 108 108 118 117  3
105 111 105 122 118 107 119 112 105 107 111 109  4
107 110 105 108 112 106 108 104 100 97 105 108  5
102 110 106 112 113 107 251 252 100 167 245 116  6
111 113 112 123 123 119 496 503 115 238 335 127  7
106 110 106 110 106 107 139 139 104 110 125 109  8
112 114 111 114 115 112 151 173 107 163 269 123  9
112 118 115 112 117 113 283 336 121 277 462 162  10
111 115 111 110 114 111 135 152 110 118 162 15000  11

Chip#1
108 104 106 106 104 106 108 108 108 103 106 106  0
105 105 108 113 104 109 113 107 108 105 105 101  1
102 96 110 127 97 115 133 103 114 132 100 92  2
104 100 105 109 98 106 116 103 104 116 98 101  3
93 95 113 115 100 110 119 100 98 93 96 95  4
96 101 464 476 102 479 795 115 108 118 101 95  5
104 101 241 246 103 303 466 109 111 116 100 98  6
106 102 114 116 104 105 111 108 108 99 96 100  7
99 99 580 550 101 317 374 104 101 95 98 96  8
99 99 382 347 100 310 361 105 103 96 92 98  9
104 102 104 107 101 106 109 107 103 103 100 99  10
106 104 100 102 98 100 106 101 99 99 96 15000  11
Chip#2
107 105 109 104 107 103 107 100 101 99 102 106  0
104 108 106 105 106 106 106 104 102 101 109 106  1
111 113 111 109 111 108 112 109 105 104 106 109  2
113 117 114 118 116 114 123 117 110 112 121 112  3
113 118 111 124 123 111 125 120 106 112 115 111  4
110 110 110 109 110 109 116 106 102 103 107 109  5
115 114 114 114 117 113 283 255 111 172 247 122  6
113 114 116 123 124 119 494 489 116 243 330 125  7
110 108 107 109 111 111 144 139 105 110 123 109  8
111 113 111 104 112 109 154 167 108 163 266 121  9
109 110 107 105 111 107 283 334 117 273 463 154  10
118 120 120 113 121 116 137 155 111 125 168 15000  11

Chip#1
103 102 97 98 102 105 98 101 104 96 96 98  0
99 96 97 102 98 104 105 103 101 92 98 94  1
96 97 116 124 97 118 132 101 112 130 100 96  2
105 105 107 115 105 111 123 107 109 118 102 105  3
98 96 111 118 98 106 119 104 102 97 96 101  4
98 100 470 477 100 481 802 117 112 121 101 95  5
104 102 246 249 108 305 468 111 112 117 101 98  6
102 101 106 115 103 104 105 101 102 88 97 95  7
95 105 575 550 101 319 376 102 102 97 98 98  8
104 109 386 351 107 314 364 105 108 101 98 102  9
108 105 106 110 109 110 106 109 106 100 102 106  10
110 106 105 106 103 103 105 104 101 101 105 15000  11
Chip#2
107 108 105 103 107 106 105 102 100 99 104 104  0
113 117 112 113 117 112 116 114 110 110 112 115  1
109 111 106 104 111 104 105 109 104 102 106 105  2
111 111 114 114 117 111 117 114 106 109 116 112  3
111 111 112 123 119 113 120 119 102 111 112 108  4
111 114 115 114 114 114 113 111 104 108 109 112  5
116 109 110 112 115 109 247 252 104 169 238 120  6
107 111 110 123 123 118 493 492 110 248 330 121  7
110 113 112 115 115 113 143 144 106 111 128 108  8
111 110 114 110 113 112 149 167 107 163 265 123  9
110 108 110 109 112 113 254 336 113 277 464 157  10
117 115 117 114 117 113 137 149 107 118 168 15000  11

Chip#1
104 105 102 104 101 105 106 105 103 104 98 105  0
97 97 95 102 98 101 106 101 98 100 96 96  1
101 99 118 127 102 117 137 103 113 133 105 100  2
104 101 105 113 103 108 120 103 111 118 103 100  3
101 100 118 124 103 111 121 102 106 97 100 95  4
96 102 464 480 102 481 808 116 108 116 100 93  5
98 96 243 246 95 302 467 105 104 112 93 92  6
103 100 114 114 101 101 108 96 102 90 95 96  7
104 112 588 568 108 330 384 111 112 105 107 104  8
97 100 386 345 98 310 364 101 100 91 92 92  9
102 99 96 98 95 97 105 96 96 89 94 93  10
103 106 104 104 101 101 105 103 101 97 97 15000  11
Chip#2
110 109 107 107 112 104 111 105 106 104 109 111  0
101 106 103 100 102 97 102 102 96 96 97 103  1
110 114 110 107 110 108 107 105 105 105 106 110  2
103 109 104 108 110 101 108 109 101 103 110 101  3
109 113 109 124 118 106 122 117 108 113 116 106  4
106 114 107 110 108 107 110 105 107 105 107 108  5
113 115 112 116 121 113 283 264 107 176 247 121  6
109 106 109 120 121 112 485 496 107 247 334 119  7
105 105 101 110 111 107 142 137 96 105 121 106  8
101 103 103 100 104 99 143 164 99 159 260 114  9
107 106 111 105 110 104 283 337 114 277 470 159  10
116 115 119 113 119 112 137 153 112 125 165 15000  11

Chip#1
104 107 102 104 103 103 108 105 104 101 100 102  0
101 97 99 109 104 103 112 101 100 103 101 101  1
110 102 116 131 107 117 136 107 113 134 105 100  2
106 107 108 116 109 112 122 111 118 124 107 107  3
108 105 115 118 104 112 123 105 103 101 103 101  4
98 99 467 486 104 492 806 121 113 120 102 96  5
97 99 243 274 102 303 467 110 109 112 97 100  6
104 107 115 116 105 109 115 105 108 101 102 105  7
106 112 585 566 111 331 384 113 108 107 105 105  8
98 101 386 346 98 308 360 100 97 93 95 98  9
110 110 113 109 110 109 108 105 108 104 98 104  10
109 105 102 104 104 104 106 108 106 100 101 15000  11
Chip#2
103 101 101 99 102 101 100 103 99 99 101 103  0
111 106 111 108 112 107 106 105 104 108 109 109  1
115 114 109 112 113 111 113 111 110 110 110 115  2
115 111 115 117 117 109 122 116 111 117 115 112  3
121 118 119 130 133 114 128 124 115 117 120 112  4
113 114 115 116 115 114 119 111 108 112 112 116  5
112 113 112 113 118 113 283 260 111 175 247 120  6
117 117 119 129 129 124 501 504 117 256 348 130  7
113 108 107 116 117 109 145 148 108 111 126 108  8
113 109 114 110 116 107 156 174 108 165 269 125  9
113 113 112 114 114 116 254 342 119 279 471 165  10
116 111 112 108 112 107 133 153 104 121 166 15000  11

Chip#1
104 109 106 113 105 110 106 108 112 105 100 106  0
99 94 98 102 97 101 108 98 101 93 96 94  1
103 101 110 129 95 120 134 103 116 135 105 94  2
104 104 110 115 101 112 116 105 107 116 105 98  3
109 106 118 125 109 116 135 110 111 103 106 99  4
102 102 467 483 102 485 813 115 106 122 96 94  5
106 107 246 254 102 308 474 114 112 118 102 102  6
106 99 111 121 104 105 107 103 106 99 96 98  7
99 105 581 565 108 321 379 103 106 96 95 102  8
104 105 391 351 101 315 370 103 103 99 97 92  9
101 99 99 104 98 106 105 100 102 95 95 96  10
105 102 95 97 100 100 104 100 102 97 96 15000  11
Chip#2
105 98 103 98 99 97 101 97 99 93 101 99  0
107 106 104 103 105 102 105 103 99 98 104 106  1
110 103 103 103 102 101 105 98 99 101 102 106  2
104 99 104 110 110 101 110 102 104 101 111 104  3
110 111 114 125 119 108 122 117 105 110 116 108  4
116 117 116 115 117 113 114 111 111 110 111 112  5
113 111 112 112 116 111 251 255 108 172 242 119  6
110 108 109 124 117 116 493 499 111 247 338 121  7
106 106 103 107 110 106 141 138 101 107 121 103  8
112 105 106 109 110 108 148 169 107 163 266 120  9
112 110 104 105 108 102 251 336 119 275 470 156  10
109 108 106 102 111 102 131 142 102 113 162 15000  11

Chip#1
102 97 97 102 96 103 100 95 99 97 95 96  0
105 102 100 107 104 103 112 104 107 99 98 98  1
105 99 118 129 98 120 134 103 117 134 103 101  2
106 109 109 119 107 116 120 107 112 128 106 100  3
101 102 114 118 100 111 122 103 103 99 97 93  4
103 111 476 492 110 491 814 123 117 122 106 105  5
103 101 241 252 104 303 472 109 107 111 97 94  6
101 95 106 109 98 99 104 98 100 91 95 92  7
105 105 581 558 101 322 374 105 104 93 96 99  8
102 99 390 345 98 310 359 102 99 91 91 93  9
108 100 107 104 104 106 107 102 104 99 97 102  10
111 100 97 99 102 101 101 98 103 91 100 15000  11
Chip#2
109 104 107 104 104 102 101 103 101 97 101 106  0
112 106 106 105 108 104 107 104 101 104 107 106  1
109 101 107 107 107 102 104 104 99 99 104 110  2
111 106 112 119 113 107 116 113 106 108 118 109  3
105 103 105 118 113 107 114 110 98 105 106 103  4
105 104 106 105 105 102 104 105 95 102 104 105  5
111 105 110 113 113 106 250 255 104 170 244 111  6
109 108 105 117 121 113 491 496 112 232 332 119  7
105 103 103 108 108 103 135 134 98 107 115 106  8
109 108 109 109 112 107 150 167 106 166 262 121  9
106 106 107 109 107 104 255 339 113 278 467 160  10
109 110 110 102 110 102 129 147 105 117 160 15000  11

Chip#1
97 94 95 96 96 97 101 94 96 88 92 90  0
101 100 102 103 103 110 112 97 101 99 100 98  1
98 94 113 124 98 112 132 101 113 133 97 95  2
102 102 107 112 100 114 122 98 113 125 100 102  3
104 105 121 125 108 116 130 108 108 100 98 104  4
103 105 472 493 107 494 818 121 113 120 101 96  5
110 109 254 274 112 311 484 110 121 125 103 106  6
99 90 106 112 98 101 109 101 99 92 92 92  7
105 102 585 568 109 329 386 104 109 99 101 102  8
101 97 393 354 101 316 364 98 100 96 93 96  9
103 96 100 103 101 105 105 101 106 92 100 95  10
106 101 100 103 101 105 109 102 101 100 97 15000  11
Chip#2
112 119 115 109 116 112 112 109 112 107 111 115  0
111 111 115 107 113 109 113 109 107 103 107 109  1
115 111 110 108 114 111 110 107 108 104 110 116  2
112 110 109 114 117 107 118 111 105 104 114 106  3
111 109 109 119 122 107 120 112 106 109 112 108  4
110 112 107 110 114 108 112 106 108 103 109 109  5
112 114 114 116 117 114 283 259 110 175 247 116  6
106 109 105 117 121 111 494 498 110 234 343 119  7
101 101 100 98 104 94 135 134 94 101 115 103  8
104 104 105 105 105 104 144 165 104 157 262 116  9
112 112 111 105 113 106 283 343 117 278 474 160  10
110 113 109 108 114 108 132 148 107 115 163 15000  11

Chip#1
105 104 100 108 100 103 105 102 106 99 100 101  0
103 99 107 110 103 105 113 103 107 107 107 106  1
108 104 120 130 101 123 134 105 118 140 113 106  2
101 102 102 107 104 107 119 97 106 117 103 99  3
95 97 115 115 96 106 124 100 101 92 101 96  4
102 104 476 493 102 487 821 125 114 122 103 104  5
105 106 250 257 103 308 479 109 114 121 103 101  6
97 95 106 113 97 98 100 95 103 92 93 94  7
102 109 587 568 100 319 378 103 102 96 100 96  8
110 107 402 359 108 326 377 107 111 104 108 110  9
99 100 98 102 94 100 100 94 100 96 90 99  10
104 97 96 93 96 94 100 97 94 93 96 15000  11
Chip#2
103 101 103 102 104 99 106 97 98 98 99 105  0
112 110 115 109 112 111 111 112 102 108 106 110  1
106 101 104 104 104 107 107 105 100 99 104 105  2
103 101 104 112 105 102 111 109 101 104 106 103  3
104 110 109 120 119 106 119 117 102 113 111 106  4
103 108 111 108 108 107 108 99 101 105 106 105  5
105 105 106 110 110 108 247 251 106 172 241 112  6
115 120 119 131 127 122 505 511 121 256 348 127  7
110 110 110 112 116 108 144 142 105 113 123 111  8
106 106 107 104 111 107 145 166 105 161 261 117  9
103 100 101 103 102 99 249 332 110 272 467 154  10
110 106 105 104 107 106 132 148 104 119 163 15000  11

Chip#1
96 97 92 101 97 100 100 97 101 96 97 95  0
103 96 97 112 102 105 108 101 101 97 98 99  1
105 101 115 126 101 120 133 104 119 135 101 98  2
101 100 104 110 101 109 120 107 108 120 98 99  3
98 97 112 119 97 107 119 101 103 100 97 98  4
98 96 472 490 102 486 814 117 111 120 98 95  5
106 101 250 264 100 311 479 108 114 120 98 100  6
105 101 113 116 102 105 109 104 108 99 93 96  7
98 101 587 565 98 321 378 101 100 97 95 93  8
104 105 399 358 102 316 375 110 109 99 98 101  9
103 97 102 104 93 98 105 100 103 97 93 99  10
109 100 98 102 101 106 106 102 104 101 97 15000  11
Chip#2
113 111 110 109 111 107 112 107 106 103 107 109  0
109 108 106 108 107 107 108 103 102 102 107 106  1
103 109 106 104 107 104 111 104 102 102 105 105  2
106 106 105 114 111 106 113 110 101 104 115 108  3
110 110 114 124 122 103 125 114 105 112 116 105  4
116 122 112 116 117 116 117 113 112 110 115 115  5
106 106 107 112 114 108 245 252 104 169 245 111  6
109 109 107 122 121 114 500 501 112 256 340 121  7
109 111 106 109 113 108 147 144 106 111 128 109  8
112 111 110 109 112 113 150 173 112 163 269 123  9
107 103 105 103 110 103 256 339 118 279 475 160  10
111 109 110 104 113 107 130 147 106 119 162 15000  11

Chip#1
106 105 98 99 100 101 106 103 108 97 103 102  0
99 100 103 104 102 104 105 100 103 95 100 95  1
102 102 121 132 104 120 137 109 123 138 102 100  2
102 101 106 113 105 104 117 102 111 120 100 104  3
101 99 116 123 100 112 125 100 108 100 101 96  4
108 104 483 495 110 494 822 123 117 122 105 99  5
97 97 246 253 98 307 478 100 103 109 98 94  6
102 100 113 116 102 101 107 100 106 99 96 98  7
104 106 590 569 101 326 388 108 108 99 103 104  8
106 102 395 356 107 319 370 102 104 100 97 102  9
105 100 104 106 101 108 105 98 104 95 95 100  10
103 101 99 102 100 99 98 97 100 99 91 15000  11
Chip#2
103 110 103 99 110 102 102 102 100 101 100 106  0
113 109 112 107 113 108 111 105 106 110 111 110  1
113 113 114 113 116 108 111 109 107 109 114 114  2
106 109 111 114 116 104 116 112 101 108 109 104  3
115 114 117 125 124 111 128 116 108 113 115 109  4
107 105 110 103 108 104 110 104 106 103 107 104  5
111 114 111 113 113 112 283 253 110 181 249 115  6
109 114 110 120 125 113 496 505 116 256 344 126  7
115 114 114 114 116 114 149 152 111 114 129 115  8
113 110 110 112 113 108 154 172 110 163 269 120  9
112 113 111 110 113 111 283 345 122 279 483 164  10
109 111 109 105 110 111 130 149 101 119 164 15000  11

Chip#1
105 102 102 102 101 103 104 101 99 101 100 106  0
101 101 102 107 97 104 106 100 103 103 98 100  1
101 97 114 124 93 117 131 100 112 130 101 98  2
102 97 106 112 97 109 117 103 107 117 101 101  3
105 106 120 129 104 114 130 110 108 107 102 102  4
98 97 483 494 107 496 829 121 113 120 100 100  5
105 104 254 274 100 314 488 112 111 118 101 98  6
102 99 112 116 103 104 108 102 103 96 102 100  7
101 96 591 567 95 317 382 96 92 91 92 94  8
104 101 398 360 97 320 376 104 97 96 100 101  9
105 97 105 103 98 101 106 102 103 99 100 98  10
109 102 98 98 96 98 101 100 99 91 93 15000  11
Chip#2
113 108 114 112 112 108 107 106 107 107 110 110  0
107 106 107 107 112 103 110 104 104 102 106 105  1
116 114 114 112 112 112 113 110 105 105 107 114  2
116 113 115 118 114 113 123 118 107 108 120 114  3
113 115 110 123 121 108 123 114 105 111 116 109  4
113 117 115 114 117 114 113 113 111 109 113 114  5
107 111 110 109 114 111 254 259 105 173 250 120  6
111 111 116 125 123 117 505 513 113 258 350 127  7
110 111 112 112 112 109 147 143 106 110 126 110  8
105 105 105 104 105 102 143 166 102 155 264 117  9
110 110 105 109 108 109 255 343 113 277 477 157  10
111 110 110 108 111 104 132 151 106 120 163 15000  11

Chip#1
105 106 104 107 102 110 109 107 108 100 107 107  0
105 107 107 113 104 110 114 103 108 108 105 105  1
106 106 117 125 97 117 135 105 116 138 105 102  2
108 101 103 113 105 106 117 101 108 124 103 102  3
102 95 113 116 103 105 124 100 102 92 97 95  4
105 101 479 499 101 492 831 119 102 124 100 96  5
103 97 245 258 95 308 484 109 106 112 95 92  6
103 105 113 119 102 107 108 100 107 96 100 101  7
105 102 599 574 105 328 388 110 102 97 98 101  8
104 104 403 359 101 323 377 105 102 100 100 102  9
101 104 99 106 102 103 106 103 101 95 97 101  10
111 105 105 104 108 104 107 102 102 96 102 15000  11
Chip#2
107 103 107 104 108 103 110 102 100 96 101 108  0
107 109 107 103 110 108 108 100 100 104 106 105  1
103 101 103 101 104 102 98 98 98 98 99 101  2
100 99 99 107 108 96 108 99 94 101 106 99  3
104 106 109 118 123 109 123 113 106 111 112 109  4
106 105 104 108 108 106 110 99 100 102 102 106  5
109 108 110 110 112 109 255 258 106 172 247 117  6
103 106 106 119 118 114 504 508 110 252 347 121  7
102 100 109 109 110 106 141 140 106 107 121 103  8
106 109 106 109 107 109 151 166 105 161 268 119  9
107 108 110 109 113 108 283 344 112 282 490 160  10
106 109 111 108 111 107 133 147 104 113 160 15000  11

Chip#1
99 99 102 108 100 105 102 102 102 100 100 102  0
109 100 103 112 103 109 113 103 104 108 103 100  1
109 104 120 133 105 124 139 112 118 137 109 104  2
101 101 103 109 98 105 116 104 104 118 100 98  3
95 95 110 116 94 105 121 100 98 93 97 93  4
103 102 491 510 108 498 835 124 116 126 108 102  5
99 95 251 257 95 308 480 103 106 108 97 96  6
106 100 116 124 105 110 115 105 111 101 106 106  7
102 105 596 580 107 329 388 104 106 97 96 101  8
104 105 405 362 105 326 378 109 106 103 103 101  9
109 106 108 110 104 111 114 109 108 97 102 107  10
105 105 98 103 101 100 102 104 104 92 98 15000  11
Chip#2
106 101 105 102 105 101 104 103 101 99 100 104  0
110 109 114 108 115 111 108 106 106 108 111 109  1
105 108 103 105 104 108 106 98 101 99 104 105  2
106 108 110 115 116 106 113 112 104 107 111 108  3
103 101 100 115 110 102 114 107 96 103 107 103  4
109 109 107 109 112 107 111 103 101 104 106 106  5
105 97 104 107 105 107 250 250 101 169 242 108  6
110 110 109 123 118 116 508 512 116 256 351 125  7
104 103 103 109 107 104 144 138 99 107 119 105  8
115 115 115 114 113 118 154 173 113 166 274 123  9
110 108 111 113 113 112 283 349 121 286 469 165  10
105 105 103 102 107 101 131 146 104 118 161 15000  11

Chip#1
104 104 99 101 96 104 104 101 104 100 102 101  0
106 102 102 106 103 106 114 104 101 103 102 99  1
96 94 113 120 95 114 125 100 107 129 97 94  2
104 102 106 115 103 115 117 109 114 117 105 100  3
109 106 119 123 105 115 129 110 113 104 106 104  4
103 102 491 503 102 498 838 119 113 124 103 101  5
108 105 257 274 103 317 492 114 111 117 107 99  6
101 96 109 114 97 106 107 103 102 95 96 95  7
101 101 593 578 102 327 387 100 101 96 98 98  8
98 95 394 354 93 315 371 96 92 89 90 90  9
103 99 98 103 100 95 106 96 103 92 96 96  10
111 104 98 104 101 106 107 103 102 96 100 15000  11
Chip#2
104 104 103 100 105 108 110 99 102 96 104 103  0
105 108 110 107 111 107 113 106 105 104 104 109  1
110 109 112 110 108 112 110 104 104 102 109 109  2
106 108 106 113 112 107 113 111 102 107 113 106  3
102 105 109 120 116 109 119 112 102 107 110 105  4
106 101 107 103 108 108 107 104 106 99 105 103  5
105 106 106 108 108 107 255 253 101 166 246 112  6
107 108 106 123 116 114 505 513 110 259 349 120  7
105 101 106 109 106 108 142 141 101 108 125 105  8
106 106 107 108 108 107 147 168 108 161 265 116  9
109 109 107 110 107 109 283 346 116 282 488 158  10
103 105 105 99 107 103 126 144 101 110 158 15000  11

Chip#1
102 97 95 104 100 104 104 100 100 91 100 96  0
105 100 106 108 93 105 107 102 101 100 100 96  1
103 104 121 131 104 123 135 105 114 138 103 101  2
102 106 106 112 101 110 115 101 109 118 103 102  3
105 106 117 127 101 114 129 107 111 99 105 101  4
102 99 489 502 103 497 834 118 109 120 101 94  5
109 106 258 266 103 317 490 108 111 118 98 98  6
99 100 113 114 102 105 109 104 107 99 95 98  7
98 102 597 576 100 328 387 103 108 93 100 101  8
102 97 407 358 105 323 376 102 104 100 97 99  9
105 106 108 109 104 110 108 104 104 103 103 101  10
106 100 98 102 96 101 105 103 100 99 102 15000  11
Chip#2
104 105 103 105 105 103 101 99 105 99 101 103  0
105 108 110 107 110 106 105 103 102 102 102 105  1
110 109 109 105 110 108 107 104 107 102 104 110  2
104 108 106 113 110 107 114 110 105 105 112 108  3
102 108 101 117 117 103 114 112 101 104 109 104  4
102 101 104 102 104 104 100 95 96 101 101 105  5
102 108 104 105 111 108 283 251 106 172 247 115  6
105 106 104 117 111 111 501 510 110 248 343 120  7
105 106 109 112 112 107 142 144 108 111 126 109  8
106 110 109 104 108 111 149 169 107 163 267 121  9
110 105 105 108 115 108 283 346 113 287 491 160  10
102 100 104 102 105 99 124 145 100 112 161 15000  11

Chip#1
106 106 98 104 102 105 102 105 101 100 102 100  0
99 85 97 102 91 94 104 95 99 96 96 89  1
102 100 117 127 98 118 133 101 117 138 103 99  2
103 102 105 110 100 108 115 100 103 115 105 96  3
108 107 122 130 105 120 132 109 109 104 103 102  4
102 102 492 509 100 504 838 116 114 125 102 101  5
105 99 253 264 102 316 494 108 112 117 100 99  6
99 102 115 116 98 106 106 98 103 97 103 96  7
99 105 595 577 95 322 388 101 98 93 96 98  8
104 104 403 364 103 329 384 104 104 101 101 102  9
101 100 99 102 97 105 107 96 106 95 101 100  10
108 109 103 108 103 101 104 100 103 99 98 15000  11
Chip#2
111 109 111 112 113 111 110 107 108 104 110 105  0
103 103 104 102 107 104 105 98 99 101 97 100  1
110 111 109 113 108 109 113 104 105 105 109 111  2
104 113 110 114 110 103 112 106 104 104 111 109  3
110 115 112 124 124 109 123 114 105 114 116 112  4
109 118 112 114 112 111 113 106 105 107 110 109  5
106 106 107 107 111 107 283 260 107 173 251 115  6
106 115 112 124 122 116 512 520 115 259 353 124  7
103 108 104 108 108 104 142 140 99 109 119 104  8
102 104 105 103 102 101 144 160 99 155 260 114  9
104 106 109 103 106 104 283 344 112 283 490 157  10
105 113 106 109 105 106 130 146 105 123 163 15000  11

Chip#1
101 100 98 103 95 106 104 97 103 92 100 96  0
102 96 100 107 101 109 111 105 106 109 100 100  1
104 106 123 130 104 122 139 109 118 137 106 99  2
101 99 105 112 103 106 116 104 109 113 102 99  3
103 102 113 121 103 114 127 107 103 99 103 102  4
103 101 490 510 101 505 838 123 113 122 100 98  5
108 106 260 274 109 322 503 118 122 117 108 99  6
103 102 115 119 103 106 109 104 108 96 100 99  7
99 105 602 582 103 330 390 104 103 96 100 101  8
106 104 411 364 107 327 380 108 106 101 101 98  9
109 97 103 104 100 103 112 103 104 100 102 99  10
112 104 102 102 98 101 105 98 106 100 101 15000  11
Chip#2
101 104 105 103 106 101 100 96 100 99 99 101  0
102 104 105 107 108 101 104 100 101 102 100 106  1
107 110 109 108 112 112 111 105 105 103 106 111  2
105 103 110 114 110 106 111 106 102 109 112 105  3
100 106 111 123 119 104 118 110 104 108 111 105  4
103 109 111 109 111 108 104 106 102 104 106 109  5
102 108 110 113 115 112 283 260 107 176 250 116  6
100 108 107 117 112 108 503 513 108 254 343 121  7
103 106 104 108 107 104 142 140 102 111 123 104  8
110 114 112 113 116 111 154 169 112 167 268 125  9
102 98 103 104 104 101 255 343 111 279 490 153  10
102 104 107 99 102 103 126 142 102 115 159 15000  11

Chip#1
106 101 106 106 101 105 107 105 106 104 103 104  0
101 93 95 102 95 97 102 94 96 91 95 90  1
106 107 123 135 109 121 139 112 118 142 107 107  2
109 105 108 118 105 111 120 112 113 124 106 100  3
99 95 114 121 96 106 122 97 100 100 101 93  4
110 105 504 530 114 506 845 131 119 132 108 106  5
104 105 257 266 104 322 501 110 111 116 101 98  6
103 100 110 116 98 101 107 97 99 95 96 94  7
102 101 599 580 103 330 386 104 102 93 101 98  8
96 92 397 356 96 314 376 96 97 87 93 94  9
110 106 108 108 103 106 112 102 103 101 107 100  10
106 99 99 101 95 100 101 100 98 96 96 15000  11
Chip#2
106 113 111 104 115 109 110 107 105 107 107 112  0
99 100 104 98 106 98 102 96 98 101 99 100  1
106 104 109 109 110 112 108 106 102 104 106 111  2
107 108 114 118 117 104 118 114 106 109 118 109  3
104 105 109 119 119 106 119 113 102 109 110 106  4
103 106 110 108 112 106 106 105 102 101 106 108  5
105 105 103 109 108 107 250 253 106 172 247 114  6
102 101 106 117 116 112 503 510 106 257 347 122  7
105 105 109 110 110 104 141 140 101 110 125 105  8
107 105 106 105 108 106 148 167 101 160 268 120  9
109 105 107 108 110 107 260 348 115 281 469 157  10
110 108 107 109 111 108 133 147 102 120 167 15000  11

Chip#1
98 101 99 104 101 107 101 102 101 99 97 96  0
101 95 104 101 98 105 112 102 99 100 100 94  1
103 106 122 133 109 123 136 112 121 144 107 107  2
101 99 107 110 98 108 114 102 107 117 98 99  3
99 96 117 118 98 111 121 104 103 97 93 92  4
99 100 491 512 103 506 841 119 113 121 96 96  5
96 96 250 263 97 310 492 104 108 108 93 88  6
104 101 117 115 103 109 107 110 111 103 102 99  7
99 105 600 580 103 332 390 104 106 96 96 94  8
99 100 409 360 97 326 379 101 97 93 91 95  9
103 100 102 104 97 108 106 100 99 97 100 99  10
106 101 103 107 103 106 104 100 104 104 97 15000  11
Chip#2
106 109 106 102 104 102 101 100 99 99 100 104  0
104 105 104 100 108 106 105 104 104 107 104 106  1
109 108 106 105 110 108 105 102 101 105 107 108  2
104 108 105 116 112 107 114 111 102 107 111 108  3
102 108 105 117 118 107 114 112 100 107 110 101  4
115 109 109 113 112 108 111 107 108 108 102 110  5
104 99 99 105 105 106 243 250 98 165 243 108  6
112 115 114 124 123 117 517 522 112 263 351 126  7
110 110 109 112 112 111 147 146 107 112 126 111  8
102 103 100 103 105 102 145 159 101 155 257 114  9
111 112 104 107 110 107 260 350 113 283 469 160  10
105 103 109 104 102 102 125 145 102 115 160 15000  11

Chip#1
99 97 100 104 100 101 100 102 106 100 98 96  0
103 95 102 104 98 104 109 97 104 100 98 94  1
105 101 128 131 103 126 138 108 123 140 112 107  2
101 107 108 110 104 111 117 107 112 121 107 100  3
99 101 120 121 101 111 124 103 108 99 103 99  4
99 99 496 512 96 505 843 116 109 113 96 94  5
103 104 264 274 101 322 497 109 111 116 106 96  6
102 95 110 114 101 104 108 102 107 96 96 95  7
97 100 603 577 104 329 392 100 101 92 96 94  8
103 99 415 364 98 326 383 103 101 99 100 96  9
104 105 102 106 98 104 108 102 107 97 101 99  10
103 101 103 102 96 101 104 103 101 97 100 15000  11
Chip#2
110 105 106 104 106 103 107 102 104 102 102 106  0
104 104 107 102 105 102 104 99 104 98 100 104  1
106 106 105 104 107 107 106 102 100 99 107 108  2
104 103 106 104 106 101 113 107 102 102 106 103  3
101 100 104 114 107 101 113 103 98 103 107 100  4
115 111 114 112 110 108 112 106 111 105 112 109  5
116 114 116 116 117 114 283 265 108 178 254 117  6
106 106 112 114 118 114 517 521 112 263 353 122  7
107 108 104 109 110 104 147 145 106 109 123 106  8
107 106 107 104 108 106 147 167 105 159 270 120  9
109 106 104 107 106 106 283 350 111 279 493 159  10
106 105 106 102 105 103 131 151 101 114 163 15000  11

Chip#1
99 95 95 97 93 97 97 90 98 87 96 94  0
101 100 105 107 102 104 109 100 102 103 100 98  1
102 105 123 129 102 120 137 107 118 138 102 99  2
105 107 110 116 105 120 117 107 114 121 108 106  3
103 102 118 119 97 112 125 101 106 96 96 104  4
101 101 505 530 107 508 849 122 111 118 100 94  5
103 105 268 274 104 321 500 113 116 116 97 100  6
104 100 114 118 105 111 113 102 106 104 102 100  7
99 106 603 576 103 331 389 107 106 95 100 98  8
101 102 408 363 100 329 380 102 97 95 97 100  9
106 110 108 102 101 110 111 105 109 101 101 105  10
104 100 100 103 104 100 104 97 101 93 98 15000  11
Chip#2
104 98 103 102 99 102 105 98 100 99 101 104  0
113 110 104 108 107 106 108 102 106 107 106 108  1
109 104 105 103 105 102 104 99 100 101 102 106  2
115 115 111 115 116 112 120 111 107 112 118 111  3
105 105 107 123 121 104 122 112 105 109 112 110  4
110 114 110 112 111 108 112 105 110 104 111 114  5
109 110 114 117 117 116 283 264 110 181 255 119  6
101 104 105 117 113 109 510 519 106 230 350 123  7
109 110 110 114 111 109 143 149 106 112 121 114  8
104 104 104 102 105 104 147 166 104 158 262 116  9
109 106 105 105 105 103 283 345 112 283 495 156  10
115 117 109 113 111 113 139 153 113 118 168 15000  11

Chip#1
104 105 106 109 103 106 102 103 103 101 106 104  0
99 94 103 104 104 106 109 100 101 96 97 95  1
98 94 117 127 96 114 131 101 108 130 98 96  2
96 99 106 108 101 105 114 102 103 117 100 101  3
103 105 121 124 105 115 125 105 107 97 102 98  4
102 105 499 512 103 508 849 119 109 124 101 100  5
108 105 264 274 108 326 507 111 116 124 106 105  6
99 100 115 113 101 103 108 97 99 91 98 95  7
102 105 610 588 104 336 395 110 103 99 105 104  8
104 102 417 366 104 329 387 105 101 97 102 101  9
105 104 108 106 101 106 108 103 103 97 100 106  10
101 93 94 93 91 98 99 94 93 88 91 15000  11
Chip#2
105 108 104 104 104 99 102 99 102 99 104 106  0
107 106 106 107 107 106 102 102 102 101 104 108  1
117 117 116 114 113 111 113 112 111 109 115 115  2
107 113 110 120 113 107 119 114 108 112 118 114  3
110 111 110 124 117 108 120 112 105 111 114 110  4
111 110 110 110 108 113 111 105 105 105 110 112  5
109 108 111 108 111 108 253 256 102 172 250 114  6
105 103 107 118 116 111 509 513 110 259 350 120  7
110 111 112 114 113 112 144 148 105 114 128 108  8
106 108 106 105 104 104 142 164 99 161 264 115  9
107 109 109 107 105 108 283 346 116 283 497 163  10
110 108 106 104 105 102 130 147 104 118 164 15000  11

Chip#1
108 105 103 108 102 108 108 104 102 99 103 105  0
104 101 106 107 102 109 111 105 101 101 98 104  1
108 102 123 133 103 121 137 107 121 138 106 110  2
101 100 104 110 101 109 115 102 107 121 101 101  3
103 107 121 126 105 112 131 107 104 104 102 102  4
98 100 503 516 97 506 852 114 104 117 98 96  5
99 99 257 290 96 315 499 104 106 112 98 96  6
109 107 119 121 102 115 111 109 109 97 105 102  7
101 97 607 583 97 331 391 102 97 96 92 95  8
103 96 415 369 103 332 388 105 108 100 98 101  9
109 105 105 109 102 104 108 101 104 100 100 101  10
110 102 102 101 98 104 106 100 104 99 102 15000  11
Chip#2
104 100 99 100 97 97 104 98 99 99 101 108  0
102 104 103 100 102 98 100 100 95 96 101 103  1
105 98 101 97 101 99 99 96 102 97 99 103  2
110 104 106 110 110 99 108 104 102 104 109 105  3
102 105 107 116 115 104 116 113 102 108 111 109  4
99 98 103 96 96 99 101 96 95 95 96 101  5
107 109 106 109 112 107 253 257 105 173 250 117  6
105 111 107 119 119 116 510 524 115 263 356 124  7
111 108 111 109 111 109 148 147 110 112 128 112  8
105 104 106 108 110 108 148 169 106 161 271 122  9
104 103 104 99 104 103 255 345 110 279 493 154  10
111 109 107 105 102 103 130 147 104 120 164 15000  11

Chip#1
102 102 106 106 102 109 104 103 104 101 108 107  0
97 96 100 113 100 103 106 100 100 99 97 101  1
106 105 122 135 104 124 135 110 118 138 107 106  2
103 95 103 109 104 104 115 104 106 115 100 95  3
102 97 117 125 104 112 125 108 104 104 98 100  4
98 97 505 530 98 520 866 121 111 124 97 96  5
105 105 268 281 107 326 517 114 113 122 105 102  6
99 104 118 121 104 109 108 105 107 101 105 105  7
93 101 607 591 101 337 392 105 99 95 100 99  8
96 97 410 364 98 328 385 102 98 95 95 98  9
99 97 98 103 95 104 106 102 100 96 96 100  10
105 101 99 104 98 99 105 105 100 95 100 15000  11
Chip#2
106 110 107 104 106 107 110 105 102 101 105 106  0
104 105 104 105 106 103 105 102 102 98 109 106  1
101 100 99 97 104 102 100 98 98 98 100 100  2
113 117 116 118 122 113 122 114 111 110 118 114  3
107 110 106 120 118 108 117 117 104 109 113 104  4
103 109 107 105 108 107 110 102 100 99 102 105  5
111 111 115 115 117 112 283 266 108 176 260 121  6
105 111 106 117 112 112 518 528 108 263 362 123  7
105 101 104 103 107 102 139 145 105 107 125 104  8
117 114 112 109 111 113 154 173 108 170 275 122  9
110 111 109 110 112 108 283 356 118 287 502 158  10
106 105 103 100 104 102 130 148 104 113 160 15000  11

Chip#1
99 97 103 102 100 100 104 102 98 97 101 100  0
95 95 95 97 91 98 104 95 91 95 96 88  1
105 101 118 129 100 121 135 108 111 134 107 102  2
99 100 104 108 96 106 114 103 102 112 100 99  3
106 107 121 129 105 112 124 105 108 105 108 104  4
101 100 505 522 100 512 856 118 108 115 96 94  5
104 106 264 281 102 322 517 112 109 117 102 104  6
106 105 114 120 103 110 111 103 102 96 101 98  7
99 107 613 592 105 335 395 104 103 99 103 101  8
99 102 412 366 101 332 390 102 101 95 97 102  9
106 104 105 107 98 104 105 102 98 99 101 101  10
105 101 102 104 97 103 102 100 99 92 97 15000  11
Chip#2
109 110 114 108 112 109 110 105 106 102 111 110  0
104 101 105 107 110 106 108 99 101 101 104 105  1
107 106 106 108 108 108 110 105 106 108 109 109  2
102 98 103 107 106 99 108 104 99 101 107 99  3
102 97 98 114 111 98 114 107 99 103 107 99  4
102 101 101 99 102 99 101 100 100 97 104 100  5
103 103 105 109 107 106 254 256 104 170 255 109  6
109 105 109 120 117 117 511 531 113 261 365 122  7
102 103 104 108 106 104 138 144 102 108 123 103  8
107 109 112 109 116 112 153 175 110 165 273 122  9
118 111 112 113 112 113 283 361 119 293 506 165  10
112 109 110 109 113 109 137 154 112 121 171 15000  11

Chip#1
98 100 100 101 95 103 101 103 94 99 101 96  0
98 96 98 101 100 101 104 96 97 96 100 93  1
108 109 125 130 101 126 138 110 121 140 114 104  2
99 101 103 110 100 104 120 104 101 114 98 101  3
103 97 116 124 103 111 125 103 100 95 100 100  4
104 101 506 518 104 516 866 124 112 126 105 99  5
101 101 265 274 98 316 517 109 104 116 102 96  6
105 104 119 121 108 109 114 107 108 107 108 102  7
101 101 608 591 98 331 392 100 101 91 98 98  8
98 94 409 364 96 325 382 96 99 93 94 99  9
101 96 97 101 96 99 102 97 96 90 95 93  10
103 99 98 101 97 99 101 95 100 97 95 15000  11
Chip#2
105 105 105 102 107 104 106 98 105 101 105 105  0
105 108 110 108 107 106 106 103 101 102 105 104  1
103 101 101 105 106 104 101 103 104 101 104 108  2
104 108 107 113 108 107 114 114 106 103 110 106  3
103 106 106 119 118 106 117 105 102 103 111 108  4
109 108 109 108 111 108 107 104 102 104 107 110  5
107 108 107 113 113 109 283 260 110 176 254 116  6
110 111 115 128 122 119 514 529 118 261 363 129  7
104 105 105 105 110 107 139 141 98 108 124 108  8
109 106 106 109 110 108 149 169 105 163 266 119  9
109 105 104 108 107 106 283 358 116 287 502 163  10
106 103 104 102 105 104 126 142 104 114 160 15000  11

Chip#1
97 96 97 101 95 100 100 96 98 93 96 94  0
109 102 111 112 107 115 117 107 108 111 108 106  1
101 97 118 127 95 116 129 104 114 133 100 96  2
97 95 103 108 95 110 116 100 104 116 96 98  3
102 99 118 126 98 112 122 107 104 99 95 99  4
99 95 511 518 104 512 863 117 106 115 98 89  5
103 102 268 274 100 322 509 109 111 116 98 100  6
109 99 113 116 98 108 109 104 106 97 102 94  7
103 106 619 596 103 336 398 108 107 99 100 102  8
96 99 414 363 96 333 387 100 98 97 95 94  9
103 100 99 101 95 104 101 95 100 92 91 93  10
106 102 100 102 97 104 105 100 102 96 100 15000  11
Chip#2
109 111 114 107 107 108 112 107 107 104 110 110  0
112 110 114 112 110 106 108 105 108 109 112 110  1
104 103 100 102 106 98 104 96 98 96 100 108  2
103 105 106 110 106 99 108 103 99 101 111 104  3
100 100 100 115 107 99 111 104 95 102 102 104  4
106 113 110 112 110 111 112 104 106 105 109 109  5
113 113 116 112 115 112 283 261 107 177 262 117  6
110 110 112 122 116 116 517 530 113 267 368 127  7
109 113 109 114 110 111 149 146 105 112 128 112  8
109 110 110 109 108 109 149 173 107 161 273 123  9
113 111 110 108 107 109 294 360 118 288 505 163  10
110 110 106 108 105 108 131 146 105 118 168 15000  11

Chip#1
103 102 104 106 103 105 107 102 106 99 105 101  0
105 102 102 107 100 109 108 102 103 105 105 104  1
98 94 110 123 95 114 129 95 111 129 98 95  2
101 102 103 116 101 109 116 102 106 121 97 100  3
103 100 116 124 100 116 125 107 107 96 102 100  4
102 100 514 546 108 521 870 122 112 122 97 98  5
108 104 266 274 102 328 517 103 112 115 100 98  6
102 99 110 120 102 109 111 102 102 92 96 95  7
99 100 614 591 102 335 395 97 103 91 96 93  8
102 99 412 369 97 330 386 96 100 91 95 98  9
102 100 98 107 101 101 104 98 101 96 92 102  10
110 102 102 103 98 103 105 100 101 101 103 15000  11
Chip#2
111 109 106 108 112 111 106 105 107 105 109 111  0
110 110 107 107 110 109 110 109 108 110 115 111  1
100 105 96 104 102 101 102 96 99 98 100 100  2
104 103 104 112 107 102 114 107 101 105 109 103  3
106 106 104 117 113 103 117 111 100 108 112 108  4
103 106 104 109 106 102 104 100 102 99 104 105  5
104 106 104 109 105 104 254 257 99 172 252 109  6
110 114 111 127 122 119 511 534 116 265 370 125  7
101 104 106 103 105 99 138 139 104 103 121 103  8
100 98 96 99 101 98 141 168 98 158 265 110  9
107 111 106 108 111 106 283 359 119 293 507 162  10
110 109 107 108 111 107 135 151 106 117 166 15000  11

Chip#1
102 97 96 102 96 101 104 97 101 95 97 94  0
99 97 104 98 100 100 112 104 106 104 96 100  1
98 95 115 123 96 111 132 102 111 133 95 95  2
105 105 113 112 107 112 122 107 113 126 105 104  3
105 105 119 127 104 115 128 105 109 104 100 104  4
105 96 517 546 107 522 873 123 116 126 98 98  5
101 97 265 274 101 320 517 102 111 113 97 98  6
103 102 116 114 101 103 107 97 103 96 97 98  7
103 102 619 600 104 338 401 105 109 99 95 102  8
103 96 412 369 102 332 394 104 104 97 97 100  9
105 101 104 107 101 104 107 103 104 96 100 95  10
109 97 100 104 101 103 105 98 101 97 101 15000  11
Chip#2
105 105 104 103 107 104 110 98 98 101 106 104  0
109 106 106 108 111 106 108 100 106 102 109 109  1
103 105 101 102 105 107 105 104 101 99 105 109  2
103 104 103 112 108 108 114 105 101 108 111 106  3
106 109 105 120 117 107 119 114 102 110 112 106  4
101 101 99 103 104 102 105 99 100 102 102 101  5
101 103 105 105 107 108 251 258 102 171 255 112  6
111 114 114 123 122 118 539 534 113 271 368 129  7
110 117 119 116 118 113 151 150 112 118 131 115  8
106 109 106 107 108 108 149 173 105 165 271 122  9
109 110 109 108 110 109 283 357 116 289 506 163  10
106 109 107 105 110 107 130 150 104 118 167 15000  11
