
Chip#1
108 106 107 108 105 115 115 109 111 105 108 106  0
105 107 114 120 104 116 123 112 109 118 109 100  1
106 112 179 221 111 189 252 123 168 263 130 107  2
111 112 133 143 116 144 175 121 139 174 123 112  3
110 114 208 213 118 154 222 123 123 112 109 106  4
106 115 2578 2628 124 2635 222 230 155 206 117 105  5
99 110 1088 1087 115 1431 2617 147 143 190 108 96  6
108 114 172 180 118 126 130 116 119 109 107 100  7
106 126 3156 3033 128 1453 1843 129 109 103 105 101  8
118 128 1961 1673 124 1461 1820 132 113 113 113 111  9
124 116 118 121 112 120 120 112 114 107 109 105  10
139 126 117 115 114 118 116 112 108 111 114 15000  11

Chip#1
109 111 106 110 107 109 113 107 108 109 106 104  0
105 99 109 114 104 107 115 109 104 113 102 100  1
105 102 137 158 102 139 175 111 137 174 113 95  2
105 107 110 126 107 121 136 113 121 153 107 102  3
101 99 143 151 102 122 160 108 107 101 103 96  4
102 106 1333 1370 109 1377 2446 165 128 165 107 95  5
106 110 597 607 116 758 1368 131 128 150 107 99  6
103 105 133 141 105 110 113 110 108 101 101 98  7
106 115 1657 1598 112 781 981 113 104 103 98 96  8
109 115 1063 918 114 791 977 116 111 111 105 104  9
114 99 102 103 100 105 108 103 103 95 97 96  10
121 110 107 110 107 110 108 111 104 101 103 10000  11

Chip#1
97 97 91 101 100 97 99 101 99 97 102 96  0
104 101 103 109 102 106 112 111 103 104 103 98  1
105 102 137 159 102 141 175 112 134 189 109 100  2
104 104 112 119 105 120 135 109 119 144 107 99  3
102 104 147 153 105 127 158 111 111 103 98 100  4
106 105 1335 1369 120 1379 2444 169 133 167 109 100  5
108 106 590 597 109 758 1363 130 126 157 101 99  6
103 102 136 145 104 108 112 107 107 100 101 100  7
102 118 1680 1608 116 788 988 114 106 104 101 100  8
105 105 1068 911 109 786 981 108 103 104 101 101  9
110 102 105 107 100 108 109 103 107 105 100 101  10
116 107 100 101 101 100 104 103 100 100 102 10000  11

Chip#1
106 105 105 107 111 105 107 112 109 107 106 107  0
97 100 100 108 97 101 105 101 99 100 97 98  1
105 101 138 164 103 139 177 109 134 189 109 99  2
101 99 108 121 103 117 134 102 114 145 103 98  3
99 101 148 155 105 127 159 109 104 101 102 99  4
98 100 1334 1357 110 1375 2443 160 124 165 102 95  5
108 110 591 605 112 763 1368 133 128 153 108 107  6
101 99 137 138 105 109 115 102 104 96 97 99  7
99 110 1684 1619 112 794 994 111 103 99 95 94  8
106 114 1071 922 108 799 985 112 111 101 101 102  9
115 106 106 110 107 108 111 103 104 100 100 99  10
120 110 102 106 102 103 105 105 104 101 102 10000  11

Chip#1
110 105 107 108 108 110 111 105 112 104 101 105  0
110 107 113 115 109 115 119 111 112 120 107 104  1
108 106 141 159 103 147 184 110 138 190 113 102  2
102 99 109 118 101 112 134 107 117 144 101 99  3
109 106 154 163 110 132 167 116 109 109 105 102  4
108 114 1342 1364 121 1388 2456 173 134 165 113 104  5
102 106 589 593 108 767 1363 128 123 148 100 100  6
104 101 136 140 105 111 114 107 108 101 97 93  7
101 107 1704 1627 112 798 1002 117 100 95 94 98  8
104 105 1078 920 108 795 987 111 100 99 95 94  9
116 110 110 112 103 110 117 110 109 104 102 108  10
130 122 116 116 112 115 117 115 113 109 114 10000  11

Chip#1
108 107 100 103 103 106 109 108 104 100 101 101  0
103 99 106 106 102 110 113 105 104 101 102 102  1
104 101 138 159 107 139 174 108 133 188 114 102  2
103 100 108 116 98 111 131 105 118 142 102 93  3
103 101 145 154 105 126 167 107 107 101 98 95  4
105 106 1338 1356 109 1390 2472 158 127 162 103 99  5
105 101 591 592 110 757 1367 130 123 149 97 95  6
110 104 140 141 109 105 119 109 108 97 98 101  7
105 117 1720 1638 115 807 1017 117 111 101 102 102  8
103 104 1088 923 105 804 993 111 103 99 97 101  9
114 104 104 106 103 106 108 105 101 99 96 99  10
124 116 108 108 108 112 113 110 112 112 109 10000  11

Chip#1
102 96 99 96 96 95 101 98 106 95 92 93  0
104 106 109 115 103 111 117 109 108 116 108 109  1
108 99 136 157 103 141 182 112 136 187 109 101  2
109 110 113 123 107 120 141 114 124 155 106 107  3
108 106 153 163 109 133 168 114 112 111 103 105  4
104 114 1347 1367 120 1399 2475 168 136 170 112 105  5
103 105 587 594 109 764 1369 122 122 149 98 98  6
103 100 134 140 103 106 112 102 106 96 95 95  7
98 113 1727 1648 108 805 1031 112 102 99 97 95  8
102 109 1098 936 108 805 1002 110 103 93 96 99  9
115 112 110 114 110 112 116 109 111 103 100 105  10
123 110 109 107 104 100 109 104 109 104 101 10000  11

Chip#1
111 102 106 107 105 106 114 107 106 107 105 107  0
102 94 102 104 97 103 107 104 100 107 98 95  1
105 105 140 155 102 142 185 110 133 190 112 101  2
106 105 114 125 103 122 141 109 118 148 105 105  3
108 104 152 158 109 132 172 113 111 105 102 99  4
101 106 1342 1363 112 1395 2484 168 133 162 101 98  5
106 104 587 591 104 758 1377 123 124 148 98 95  6
103 107 140 139 105 111 119 107 106 101 100 96  7
105 116 1743 1663 119 814 1044 116 107 107 100 104  8
109 112 1104 942 114 814 1011 116 106 103 102 99  9
110 111 113 110 107 115 115 109 107 105 102 102  10
116 112 103 102 103 100 109 108 106 97 100 10000  11

Chip#1
104 105 99 98 100 104 104 105 103 103 103 98  0
106 105 104 110 107 105 117 109 107 107 103 100  1
110 101 143 160 111 147 183 114 136 190 117 106  2
99 99 104 113 100 111 131 104 114 140 100 95  3
102 107 147 157 108 129 165 113 108 103 105 103  4
104 112 1354 1370 122 1410 2507 170 133 169 111 106  5
99 102 590 596 107 770 1388 126 122 148 103 98  6
102 101 131 142 107 109 115 110 106 97 100 100  7
98 111 1744 1682 111 824 1046 111 103 93 101 100  8
103 111 1113 953 112 823 1018 117 111 99 103 101  9
112 106 110 109 109 115 112 111 108 101 101 101  10
126 114 109 112 110 107 114 109 109 109 107 10000  11

Chip#1
102 102 97 106 105 105 109 101 106 97 105 98  0
106 106 110 113 107 106 115 109 111 112 109 102  1
97 90 130 148 98 133 178 105 122 182 103 95  2
101 100 106 121 103 117 137 109 117 144 103 100  3
105 105 153 158 108 128 170 112 114 108 108 106  4
97 104 1346 1366 110 1415 2500 160 127 158 103 98  5
102 97 585 592 107 763 1385 122 118 145 103 94  6
102 95 133 141 104 104 113 102 102 93 98 92  7
104 111 1752 1680 112 825 1051 112 103 96 102 95  8
109 112 1117 953 115 830 1040 114 111 103 105 109  9
110 105 108 110 108 106 111 107 103 101 100 96  10
121 110 100 104 105 103 109 103 101 101 102 10000  11

Chip#1
103 105 102 108 104 106 108 107 109 104 108 105  0
105 101 106 113 110 110 117 112 109 115 109 102  1
101 96 137 158 104 134 174 110 132 186 109 99  2
106 99 107 121 102 116 135 108 121 149 106 101  3
102 102 151 158 107 126 168 114 111 104 102 105  4
109 114 1366 1392 121 1428 2533 174 138 176 112 111  5
102 102 595 599 108 773 1395 125 121 145 105 96  6
102 99 133 139 104 104 114 107 106 101 95 95  7
101 109 1771 1698 116 838 1065 115 107 101 98 99  8
101 102 1121 954 104 824 1024 113 99 100 95 95  9
109 102 103 107 102 101 109 103 102 97 100 96  10
127 109 108 110 105 107 108 108 108 109 108 10000  11

Chip#1
109 110 109 110 111 111 113 112 111 111 105 105  0
95 93 98 97 100 101 105 98 94 93 92 89  1
104 106 138 161 103 139 180 112 138 190 112 95  2
97 97 106 110 98 112 132 101 107 141 98 93  3
99 101 147 152 107 129 166 113 108 105 98 100  4
102 106 1361 1383 117 1428 2535 165 126 162 101 100  5
108 109 596 609 117 786 1408 132 131 157 108 102  6
99 106 137 142 107 115 114 108 108 107 98 96  7
109 122 1784 1705 119 838 1077 122 111 112 107 106  8
101 107 1122 962 108 832 1053 111 103 99 98 99  9
110 106 111 112 103 106 109 104 104 101 95 98  10
116 107 103 99 107 105 111 105 102 96 105 10000  11
