
Chip#1
99 97 103 110 100 99 100 95 101 98 99 100  0
102 97 106 145 171 105 99 97 100 99 99 102  1
100 98 106 142 146 107 103 99 103 100 99 102  2
132 101 109 118 115 104 104 102 106 105 131 103  3
97 94 102 141 133 101 101 94 99 90 94 95  4
108 109 116 141 143 111 105 103 109 107 106 111  5
132 109 102 106 103 106 102 100 99 96 99 99  6
164 145 114 110 103 105 107 97 104 102 95 105  7
156 137 116 116 112 111 106 104 108 104 131 105  8
103 104 103 106 97 98 96 93 96 95 91 98  9
156 138 110 108 106 104 101 95 102 102 131 102  10
139 125 98 106 101 101 96 94 97 95 94 15000  11
Chip#2
112 100 95 93 101 100 93 93 96 98 98 98  0
112 109 109 118 133 110 106 101 95 106 110 104  1
112 95 98 121 145 100 93 97 95 99 98 97  2
84 101 101 102 105 100 98 101 95 105 102 100  3
112 101 101 108 133 102 96 100 95 102 97 102  4
85 101 98 118 143 99 97 101 95 108 103 103  5
128 106 102 100 105 105 104 101 96 101 105 107  6
128 154 109 99 101 104 101 102 95 102 102 105  7
112 142 103 95 96 99 102 97 95 101 103 102  8
112 106 107 97 101 104 102 101 95 108 100 104  9
128 155 116 103 106 104 105 106 95 105 105 109  10
112 127 101 97 101 93 97 97 95 106 97 10000  11

Chip#1
98 100 105 128 124 103 101 99 104 102 99 96  0
102 101 115 316 329 132 105 101 97 96 104 98  1
104 102 112 301 335 136 109 101 103 103 101 103  2
109 109 112 155 164 112 111 102 108 105 131 109  3
108 106 122 337 329 127 109 107 108 103 105 103  4
110 109 122 290 293 123 112 109 106 109 114 102  5
158 150 116 123 115 108 107 104 104 110 107 107  6
366 365 148 111 103 108 107 96 100 105 105 94  7
301 294 125 110 106 104 103 101 99 102 105 101  8
165 179 114 115 107 112 107 107 106 112 131 103  9
323 329 148 111 106 107 106 102 96 104 110 102  10
267 259 120 106 102 104 102 100 94 105 131 15000  11
Chip#2
112 100 106 95 100 99 98 98 95 99 100 99  0
112 100 104 210 255 108 98 98 96 102 100 102  1
112 108 109 292 409 119 107 103 95 111 106 105  2
112 101 101 110 124 103 98 96 95 104 99 107  3
128 108 106 242 302 112 107 102 96 104 105 105  4
112 110 104 247 354 116 110 104 95 105 103 102  5
80 105 106 99 108 103 101 100 95 105 103 102  6
201 406 147 102 108 104 104 104 95 106 105 107  7
179 366 147 99 109 103 103 98 95 105 104 103  8
112 127 106 95 101 104 101 100 95 101 99 104  9
184 411 179 97 103 99 100 96 95 101 97 102  10
154 273 147 98 101 103 104 104 96 105 110 10000  11

Chip#1
100 101 105 141 141 107 103 100 100 105 104 101  0
97 98 120 434 490 144 105 97 95 96 99 99  1
102 107 120 422 499 184 107 102 106 105 131 102  2
102 97 110 170 187 104 105 99 99 100 96 96  3
99 97 124 465 469 130 105 99 94 102 95 93  4
111 106 129 397 426 132 114 105 110 112 106 105  5
188 190 119 132 125 116 117 112 106 114 111 112  6
538 551 173 112 112 104 110 103 102 108 131 102  7
433 416 133 108 99 98 103 96 93 103 96 93  8
193 207 119 110 107 106 107 100 104 112 105 103  9
468 489 173 116 109 109 110 109 102 118 131 102  10
369 367 134 108 107 103 106 103 100 109 111 15000  11
Chip#2
82 98 95 99 100 99 96 93 95 102 97 100  0
112 108 108 258 344 117 107 103 95 109 108 105  1
112 104 106 397 574 120 102 100 95 102 103 102  2
112 108 109 115 144 106 100 97 95 105 102 108  3
112 107 103 280 411 114 106 101 95 108 103 102  4
112 106 104 328 492 120 102 104 95 107 106 107  5
80 113 102 100 113 100 98 96 95 101 102 98  6
243 575 179 103 104 102 103 100 95 106 106 99  7
226 516 163 102 99 104 102 101 95 107 103 103  8
112 139 110 99 101 102 101 101 95 99 98 102  9
234 589 203 104 106 105 103 102 96 112 110 110  10
174 358 147 102 104 103 102 103 95 107 106 10000  11

Chip#1
102 99 105 140 151 104 105 94 99 103 97 98  0
102 100 126 484 536 168 104 104 97 104 102 98  1
105 102 121 450 533 168 110 106 103 104 107 98  2
105 102 110 184 196 113 109 104 106 105 105 103  3
111 107 143 522 518 168 115 111 108 115 110 113  4
109 101 121 419 440 132 109 103 102 102 105 99  5
188 191 119 129 127 112 110 108 110 113 109 108  6
572 593 177 115 106 108 111 104 104 109 131 102  7
460 461 139 112 100 104 101 99 96 105 102 95  8
193 213 111 106 102 103 103 99 99 102 99 98  9
497 520 175 110 109 106 105 104 103 115 131 103  10
401 392 139 111 103 107 111 108 102 113 131 15000  11
Chip#2
112 101 96 92 98 98 96 97 95 102 96 94  0
112 109 113 267 383 119 107 103 96 111 104 107  1
112 108 106 466 663 131 104 100 95 109 108 102  2
112 102 109 121 152 105 103 103 95 111 105 108  3
112 114 114 328 479 125 112 112 96 119 116 114  4
86 108 103 376 560 122 107 104 95 109 104 104  5
112 119 109 104 111 109 107 106 95 106 108 102  6
268 664 179 102 103 104 106 102 95 106 102 103  7
250 593 163 102 109 108 107 103 95 111 102 108  8
112 148 113 102 110 106 106 102 95 111 109 110  9
255 670 215 100 103 104 104 102 95 106 102 100  10
182 399 147 97 96 98 97 98 95 106 100 10000  11

Chip#1
104 94 105 144 152 100 99 93 97 98 96 96  0
106 106 131 551 612 184 109 108 102 107 105 106  1
106 106 130 528 614 200 114 115 106 108 131 107  2
100 101 106 191 214 109 106 101 103 102 101 102  3
108 108 144 588 584 168 114 107 106 110 105 105  4
106 102 128 493 507 133 112 104 101 105 131 96  5
200 203 112 130 128 112 109 101 106 105 131 105  6
677 684 199 123 114 112 119 115 107 115 131 108  7
525 528 145 112 107 100 105 99 100 104 106 101  8
219 240 117 115 107 109 105 101 102 107 104 105  9
569 607 195 116 112 111 115 106 104 121 131 103  10
458 458 145 109 111 105 111 102 104 119 131 15000  11
Chip#2
112 107 101 102 110 106 101 97 95 106 102 105  0
112 108 107 312 456 125 106 104 95 112 108 109  1
112 115 110 539 795 158 111 107 95 108 106 108  2
112 106 103 123 163 104 98 96 95 106 98 104  3
112 109 107 370 555 117 109 102 95 109 105 108  4
112 113 110 436 667 126 110 104 95 105 103 107  5
112 124 103 104 114 105 101 102 95 101 104 105  6
310 793 204 105 110 103 107 104 96 107 105 104  7
275 693 204 99 104 102 106 102 95 102 100 99  8
84 149 100 99 100 102 97 93 95 100 97 97  9
289 801 245 105 110 105 111 107 96 113 105 108  10
197 474 163 97 100 98 100 96 95 102 99 10000  11

Chip#1
111 116 114 156 167 113 115 109 104 118 110 112  0
132 113 134 527 583 184 115 109 107 115 131 108  1
99 105 122 493 570 184 112 107 99 107 104 99  2
106 102 110 187 207 107 106 107 106 107 104 102  3
111 114 144 552 547 168 114 114 103 112 110 107  4
103 107 121 443 472 128 110 103 100 104 106 98  5
194 197 115 124 127 112 109 103 109 112 131 107  6
621 645 186 115 111 103 111 102 106 113 131 103  7
504 507 162 123 115 119 121 112 114 123 119 109  8
208 224 114 109 106 107 104 103 103 107 106 101  9
531 567 191 111 111 106 110 103 101 115 131 106  10
430 432 142 115 106 106 109 107 102 119 131 15000  11
Chip#2
86 100 103 98 105 104 101 103 95 104 109 103  0
112 108 104 307 449 115 106 101 95 106 109 108  1
112 106 103 539 791 136 106 101 95 106 105 103  2
84 102 101 128 157 105 102 100 95 105 97 107  3
112 106 102 368 553 121 109 108 95 106 106 104  4
112 105 107 437 666 127 110 109 95 108 110 107  5
112 120 106 105 115 106 107 106 95 104 102 108  6
315 800 202 107 113 106 112 106 95 111 109 105  7
289 699 202 110 110 104 114 104 95 111 108 110  8
112 153 107 103 103 103 101 103 95 104 100 100  9
289 801 239 102 105 105 109 106 95 113 106 108  10
192 470 163 89 91 94 97 90 95 98 96 10000  11

Chip#1
102 101 114 155 164 111 109 102 104 104 109 106  0
132 113 135 561 612 200 112 115 107 112 131 107  1
108 101 126 523 609 184 117 106 103 110 106 101  2
104 102 107 190 211 111 105 103 100 109 107 103  3
105 109 136 584 580 168 112 105 100 104 101 98  4
109 105 134 484 507 140 111 110 103 110 109 105  5
196 201 108 121 118 104 104 101 99 104 100 96  6
665 706 191 111 107 106 105 105 99 109 102 100  7
528 535 152 117 109 108 109 107 107 114 110 106  8
214 234 119 112 102 101 105 97 100 105 102 102  9
572 602 193 115 112 107 111 110 104 123 114 103  10
458 455 143 109 105 104 114 110 103 119 131 15000  11
Chip#2
112 104 98 98 101 104 98 97 95 102 100 105  0
73 102 95 314 456 109 92 95 95 101 96 97  1
80 107 98 560 829 134 103 103 95 102 103 102  2
112 106 107 125 163 104 100 100 95 105 103 102  3
112 110 107 385 579 121 111 109 95 107 108 110  4
112 117 108 466 700 131 110 106 95 109 110 107  5
112 121 104 107 116 108 107 104 95 107 102 108  6
320 841 203 105 108 103 106 108 95 111 104 104  7
292 736 203 105 109 108 105 107 95 108 105 105  8
112 161 110 104 109 103 102 106 95 109 105 110  9
302 846 251 105 108 108 107 106 96 115 111 108  10
207 493 179 107 100 100 107 102 95 108 105 10000  11

Chip#1
108 107 114 152 167 109 109 102 109 112 104 107  0
132 107 134 558 613 184 119 109 110 114 131 107  1
108 109 128 523 614 200 115 109 107 114 131 100  2
100 105 107 188 215 106 105 104 103 102 101 100  3
104 106 145 590 583 168 115 108 107 109 109 103  4
103 106 128 484 504 136 110 102 104 105 100 102  5
206 208 121 133 130 109 112 108 106 110 110 108  6
677 713 196 124 114 112 120 112 110 114 131 106  7
537 535 157 116 118 111 117 108 108 122 131 109  8
215 237 119 112 109 111 109 101 106 107 104 103  9
565 600 185 109 107 104 105 101 97 109 106 102  10
456 463 145 113 113 106 112 111 109 123 131 15000  11
Chip#2
112 106 103 102 110 104 102 102 95 107 100 107  0
112 112 112 338 492 117 104 104 95 108 108 103  1
86 111 107 589 874 140 105 98 95 111 103 99  2
128 102 104 126 167 110 104 102 95 108 97 107  3
84 100 103 401 594 115 106 103 95 100 99 99  4
112 114 107 482 739 128 112 107 95 112 109 103  5
112 121 104 107 115 106 101 102 95 102 99 100  6
335 882 214 105 110 108 110 103 95 114 108 104  7
300 779 214 103 108 105 111 107 95 108 108 105  8
128 168 120 105 106 106 110 104 95 112 103 113  9
308 879 252 98 108 99 106 102 95 107 103 103  10
206 511 179 94 104 99 101 95 95 102 103 10000  11

Chip#1
98 95 98 142 164 100 99 92 97 99 93 93  0
103 107 131 555 607 184 111 107 101 108 109 100  1
99 102 126 520 608 184 112 108 102 108 101 103  2
110 108 115 198 220 117 112 114 112 113 131 111  3
104 108 138 586 583 168 114 108 106 108 109 102  4
110 110 136 484 510 139 119 110 106 118 110 103  5
194 196 110 118 120 100 104 95 101 102 95 99  6
670 684 190 110 108 106 107 102 101 114 131 99  7
528 536 156 118 113 111 111 107 110 114 131 106  8
215 236 114 105 105 99 103 97 101 107 100 102  9
576 609 198 119 118 113 116 111 112 122 131 112  10
454 454 139 106 105 103 110 102 101 117 131 15000  11
Chip#2
112 102 106 104 100 102 98 98 95 98 99 103  0
112 106 109 347 511 121 107 108 95 108 108 105  1
86 105 106 618 915 138 103 103 95 105 104 100  2
112 108 106 129 168 109 100 99 95 105 99 103  3
112 102 100 420 624 116 106 98 95 102 99 100  4
112 108 104 500 768 126 105 104 95 104 100 103  5
112 129 107 113 120 114 107 108 95 105 104 104  6
347 921 219 105 113 106 109 109 95 107 104 103  7
310 812 192 102 103 102 105 103 95 105 102 97  8
112 167 113 105 103 103 107 104 95 107 103 105  9
327 922 268 108 109 104 114 109 95 118 106 110  10
220 537 163 102 105 104 101 93 95 104 105 10000  11

Chip#1
98 104 105 145 164 103 104 99 101 104 99 99  0
103 102 125 548 607 184 106 101 96 102 101 100  1
105 107 125 517 609 184 112 108 106 108 109 103  2
100 100 112 194 211 113 105 104 104 108 102 105  3
100 101 133 577 572 168 104 100 94 102 96 92  4
104 105 129 484 502 130 109 105 104 105 106 100  5
200 200 110 124 126 109 109 102 101 110 99 106  6
679 705 193 117 116 113 114 105 104 118 131 106  7
520 524 140 109 108 98 104 102 100 104 131 95  8
209 236 110 105 105 101 106 96 103 105 96 99  9
567 600 190 115 112 108 112 104 104 122 131 101  10
456 460 144 110 114 108 115 111 106 121 131 15000  11
Chip#2
81 100 101 95 93 102 97 90 95 99 94 96  0
112 115 104 345 514 117 107 104 95 105 105 107  1
112 112 108 624 920 158 107 104 95 109 106 107  2
112 102 103 128 172 103 100 99 95 105 102 105  3
85 106 102 418 629 121 107 107 95 106 103 103  4
112 110 103 499 769 125 110 110 95 105 109 107  5
112 117 104 104 109 99 102 100 95 99 96 100  6
353 919 226 107 115 111 114 109 95 107 111 109  7
314 810 200 108 111 106 112 106 95 111 105 112  8
128 166 110 98 106 102 100 99 95 100 99 102  9
319 920 261 108 108 108 114 106 96 109 109 112  10
213 533 179 100 105 99 101 96 95 106 102 10000  11

Chip#1
99 100 106 142 164 108 106 100 100 100 105 98  0
110 112 131 522 573 184 111 111 109 114 114 105  1
106 108 124 494 572 184 111 107 106 110 110 102  2
99 101 111 186 205 109 105 102 102 108 105 100  3
110 105 140 554 552 168 115 109 109 112 109 99  4
103 106 125 448 477 128 105 104 103 108 105 94  5
194 193 114 125 131 109 111 106 109 109 107 103  6
624 646 192 119 115 113 110 109 106 119 131 106  7
500 502 145 113 109 100 110 103 104 110 109 103  8
205 226 115 108 106 105 104 99 100 103 105 99  9
527 558 183 110 106 103 107 101 101 118 106 102  10
428 441 144 109 111 108 109 107 110 119 131 15000  11
Chip#2
112 102 103 103 108 102 98 98 95 105 100 103  0
112 108 101 347 513 121 110 106 96 106 104 101  1
112 106 103 616 916 158 109 97 95 102 99 107  2
112 108 108 136 177 109 103 106 95 107 102 113  3
112 108 107 424 636 123 110 106 95 112 103 105  4
112 110 107 504 769 132 106 109 95 109 104 105  5
128 130 108 110 120 110 114 107 96 109 109 113  6
354 924 219 109 116 114 119 115 96 117 116 109  7
315 816 197 109 116 109 112 109 96 109 114 112  8
112 168 114 105 106 106 105 102 95 108 105 103  9
319 912 261 102 110 103 109 104 95 108 106 102  10
218 536 163 102 103 99 103 100 95 105 105 10000  11

Chip#1
98 104 105 147 164 106 99 101 101 103 104 99  0
109 108 135 554 613 200 115 114 106 112 131 103  1
102 100 125 520 609 168 114 107 101 104 106 101  2
104 112 111 196 217 113 107 104 107 109 106 102  3
132 110 145 591 587 168 115 109 107 110 131 111  4
105 107 130 484 504 138 114 105 104 113 104 98  5
197 201 114 125 119 108 107 100 104 107 104 102  6
671 706 190 117 112 108 110 102 104 110 109 99  7
527 536 158 112 114 109 112 104 102 115 131 103  8
219 245 122 117 108 113 110 103 110 110 107 108  9
568 603 193 112 109 107 116 108 107 122 131 105  10
450 459 135 109 101 101 109 103 101 114 131 15000  11
Chip#2
112 100 96 95 99 98 97 96 95 100 98 97  0
112 102 101 329 486 110 98 103 95 101 98 98  1
112 106 108 590 872 140 107 99 95 108 103 99  2
128 110 106 135 173 113 105 102 96 108 105 107  3
87 105 101 399 603 121 107 102 95 109 106 102  4
87 105 104 466 732 127 105 104 95 109 100 100  5
112 116 103 107 116 106 98 103 95 106 100 102  6
332 869 211 104 108 102 106 102 95 109 104 100  7
302 774 211 105 114 106 112 102 95 106 105 105  8
112 162 114 102 103 103 104 103 95 104 102 107  9
309 882 255 102 108 108 109 107 95 109 108 105  10
216 521 163 103 108 106 109 104 95 109 106 10000  11

Chip#1
98 100 107 146 164 107 102 102 94 108 102 99  0
108 112 134 558 614 184 115 109 106 112 111 105  1
103 104 122 520 608 184 111 106 105 109 110 100  2
104 104 112 192 214 111 105 104 103 109 105 100  3
98 101 136 584 578 145 106 96 99 100 99 99  4
106 107 130 484 506 139 119 109 106 115 109 102  5
201 203 119 130 121 112 106 101 107 110 104 106  6
664 680 187 112 106 103 105 103 96 108 107 101  7
524 528 152 113 108 105 111 101 101 112 111 96  8
219 240 120 113 109 108 109 104 106 109 131 102  9
567 606 199 113 107 108 112 102 106 118 131 103  10
458 463 147 111 109 108 116 108 108 119 131 15000  11
Chip#2
112 100 100 102 108 100 106 103 95 101 97 102  0
112 110 110 348 516 120 106 108 95 108 106 108  1
112 111 103 622 916 142 111 107 95 109 102 104  2
112 100 97 128 164 105 102 97 95 101 98 102  3
112 105 103 418 636 120 109 98 95 105 99 103  4
112 105 97 496 764 122 105 101 95 101 102 100  5
112 129 109 114 119 114 110 108 95 108 103 109  6
343 909 210 102 106 99 102 103 95 102 104 99  7
315 806 192 107 111 109 111 108 95 109 105 107  8
128 172 118 109 108 110 110 109 96 107 104 110  9
322 921 263 105 113 106 112 108 95 111 112 110  10
220 532 179 99 101 103 102 97 95 106 103 10000  11

Chip#1
104 102 108 149 164 108 103 97 102 102 102 101  0
105 104 126 551 607 184 105 106 97 112 102 99  1
106 108 130 524 608 184 116 115 106 114 131 108  2
106 105 111 194 211 109 110 104 104 108 131 108  3
132 110 147 595 586 184 117 114 108 114 131 108  4
109 107 126 484 504 135 110 109 104 112 102 99  5
201 206 116 125 126 112 109 107 107 109 131 103  6
668 684 193 118 118 109 111 109 108 117 131 101  7
532 539 161 122 116 111 116 108 113 122 131 106  8
217 239 119 115 107 109 107 102 106 109 107 103  9
565 605 198 117 112 111 110 104 109 121 131 102  10
454 463 147 116 111 109 112 107 106 122 114 15000  11
Chip#2
112 101 101 99 101 102 102 98 95 101 105 98  0
112 100 103 345 510 115 102 102 95 104 98 105  1
112 114 112 621 921 144 110 107 95 107 112 105  2
112 108 106 131 175 110 100 102 95 100 102 108  3
84 112 106 424 638 122 114 110 95 112 108 107  4
112 105 106 502 771 125 107 103 95 104 105 105  5
112 130 112 113 124 111 109 107 95 107 109 108  6
347 919 216 104 111 109 107 109 95 109 108 109  7
310 804 194 103 106 104 107 104 95 106 105 104  8
128 169 116 110 110 113 107 106 96 112 110 118  9
315 914 257 102 101 99 98 102 95 107 100 103  10
220 538 179 100 108 104 105 107 95 108 105 10000  11

Chip#1
102 104 105 149 164 106 102 102 104 105 105 106  0
105 107 135 554 607 184 110 104 104 113 107 103  1
103 107 125 522 607 200 111 107 109 109 131 101  2
100 98 105 185 207 108 100 100 99 102 99 100  3
109 109 140 586 583 168 112 109 108 108 109 103  4
108 110 128 484 504 138 114 114 104 114 110 105  5
199 202 110 124 120 105 107 105 104 105 101 100  6
663 678 185 109 106 104 102 101 96 108 102 94  7
526 530 154 115 111 109 110 107 109 114 107 101  8
213 235 115 112 109 106 103 97 103 104 102 101  9
573 606 199 119 115 112 114 108 109 128 117 107  10
454 457 143 111 108 105 110 100 106 117 131 15000  11
Chip#2
112 101 103 99 101 99 95 98 95 99 100 100  0
112 107 102 347 511 120 106 104 95 106 104 100  1
112 111 107 618 924 158 109 100 95 108 104 108  2
112 105 100 129 170 108 101 98 95 102 99 100  3
112 105 104 416 629 117 106 101 95 109 99 105  4
112 112 112 505 771 131 112 109 95 111 108 108  5
112 121 107 110 124 114 109 108 95 107 105 108  6
345 917 213 107 106 105 105 108 95 105 105 100  7
317 811 196 108 111 105 114 107 95 112 109 108  8
128 167 113 103 104 110 106 106 96 106 104 104  9
307 907 251 97 98 96 101 93 95 99 94 98  10
217 538 179 103 103 104 107 106 96 111 108 10000  11

Chip#1
104 110 110 156 166 107 103 109 109 105 107 105  0
102 108 135 552 612 184 114 110 104 114 110 100  1
104 108 129 524 611 200 110 109 106 108 131 99  2
106 105 108 193 213 113 106 108 104 107 106 106  3
110 113 143 593 586 168 116 115 110 117 110 106  4
105 104 126 484 503 132 103 105 107 107 105 98  5
199 211 116 125 127 114 104 109 108 108 107 103  6
666 683 192 116 111 109 107 106 104 108 106 96  7
531 539 153 119 109 112 114 110 110 119 131 107  8
213 232 114 110 105 104 102 102 101 105 104 99  9
573 608 198 116 118 112 114 112 108 126 115 103  10
452 455 140 107 103 108 109 102 103 112 131 15000  11
Chip#2
84 100 101 95 101 105 96 100 95 95 97 99  0
112 107 103 348 510 114 106 99 95 102 102 108  1
112 112 106 619 919 143 107 110 95 105 106 105  2
112 107 109 126 173 108 103 102 95 107 100 105  3
112 107 107 415 630 121 109 98 95 108 103 107  4
112 110 106 505 774 126 109 107 95 108 108 103  5
112 126 107 109 119 113 110 107 95 105 108 108  6
350 912 216 103 115 109 110 109 95 108 104 108  7
319 805 195 104 109 108 110 109 95 111 109 108  8
128 162 110 98 101 102 101 103 95 101 104 108  9
312 913 252 95 101 99 97 100 95 101 100 97  10
218 530 163 100 103 103 102 100 95 105 98 10000  11
