
Chip#1
104 108 106 99 100 100 101 95 102 102 95 98  0
106 96 106 101 101 103 105 105 102 100 103 99  1
103 102 103 104 99 103 98 103 103 98 95 98  2
103 102 122 287 139 101 107 241 284 101 99 99  3
115 107 116 217 112 111 110 240 280 114 115 111  4
104 108 102 97 102 99 102 102 99 98 97 95  5
102 93 103 101 99 100 100 101 99 95 97 96  6
106 103 108 200 131 106 106 149 181 103 103 104  7
108 106 117 338 220 106 107 288 269 109 107 106  8
101 100 98 110 101 99 101 111 109 97 90 99  9
110 107 108 112 102 108 106 108 107 102 102 104  10
112 107 111 104 106 109 105 107 106 104 103 15000  11
Chip#2
114 103 107 104 101 102 110 100 104 100 104 106  0
105 106 104 102 101 103 112 100 103 104 102 105  1
108 106 107 107 101 106 115 100 109 106 104 108  2
113 108 113 111 325 127 114 100 442 370 105 108  3
110 108 113 131 360 128 111 100 745 729 105 104  4
103 100 104 99 101 100 105 100 102 101 97 97  5
114 110 111 104 101 109 115 101 109 112 112 108  6
111 102 108 109 229 108 111 100 181 136 110 109  7
113 105 109 119 600 308 110 100 669 493 106 109  8
110 106 113 106 309 111 107 100 189 175 107 106  9
113 105 110 107 104 104 115 100 104 103 105 103  10
126 118 115 108 104 112 120 100 112 113 114 15000  11

Chip#1
106 103 107 103 105 101 105 101 102 104 105 111  0
102 102 102 101 102 97 102 98 99 100 102 102  1
102 98 104 103 95 100 100 106 101 100 95 98  2
111 106 114 295 142 105 107 258 295 104 106 102  3
104 102 104 216 112 98 103 246 278 106 97 101  4
106 105 107 104 101 102 110 108 103 101 94 98  5
106 106 108 107 107 103 103 105 103 104 103 107  6
102 98 102 190 123 98 100 140 181 97 94 96  7
108 108 109 341 223 106 106 293 274 108 102 106  8
108 107 107 112 108 100 108 117 107 102 102 103  9
104 101 101 104 97 98 101 100 101 103 95 104  10
106 102 103 101 99 95 98 101 99 97 99 15000  11
Chip#2
106 99 103 101 61 102 110 99 99 103 100 108  0
114 113 113 110 104 108 112 100 110 111 110 114  1
106 101 102 99 61 102 102 99 103 97 105 105  2
106 100 101 110 333 124 105 100 466 385 107 104  3
109 103 110 127 371 125 108 100 761 771 107 105  4
108 101 104 102 88 103 105 100 104 97 101 105  5
112 102 113 108 104 104 108 100 109 108 106 109  6
111 101 109 109 237 109 108 100 183 130 107 107  7
121 110 115 122 644 326 113 106 730 532 111 113  8
111 103 107 103 322 111 105 100 191 177 101 107  9
115 110 108 101 104 104 110 100 105 102 106 106  10
127 113 116 111 104 111 110 102 113 112 112 15000  11

Chip#1
108 98 103 103 96 95 103 102 103 101 103 102  0
108 98 107 102 100 103 106 110 101 102 106 108  1
107 106 108 107 102 103 105 106 105 106 101 102  2
110 108 114 299 147 106 108 265 301 109 107 109  3
114 107 111 218 115 104 112 252 290 109 106 108  4
110 108 107 104 105 99 102 107 107 104 103 106  5
106 103 103 109 102 104 106 111 106 103 101 106  6
102 96 99 187 119 93 98 140 181 95 94 98  7
108 101 113 340 223 106 105 299 275 103 105 102  8
107 106 112 117 105 104 112 115 111 104 101 102  9
108 108 111 103 108 106 112 111 106 103 101 107  10
102 96 97 96 97 92 98 98 91 93 95 15000  11
Chip#2
106 106 106 102 104 106 111 100 104 104 104 106  0
111 101 110 102 73 104 111 100 109 104 104 107  1
116 108 111 102 104 109 110 100 109 102 107 112  2
111 105 113 114 343 137 111 100 472 407 114 109  3
110 102 108 133 386 133 115 100 772 790 109 108  4
109 105 107 103 104 101 111 100 110 107 110 107  5
114 110 113 110 104 108 115 101 117 109 114 109  6
104 97 101 102 236 102 99 100 178 127 100 100  7
120 110 120 129 658 337 120 107 748 553 117 118  8
113 108 111 110 328 114 117 100 185 186 115 113  9
117 103 114 103 80 108 112 100 107 108 112 105  10
125 118 117 108 80 108 115 102 118 113 112 15000  11

Chip#1
106 105 104 103 99 102 103 101 99 100 106 104  0
102 101 103 103 94 100 96 101 99 93 99 97  1
106 106 102 106 102 99 103 103 105 101 102 98  2
106 108 113 292 141 106 100 259 296 97 102 96  3
107 103 104 213 101 100 100 245 283 101 99 101  4
107 105 103 104 95 98 100 101 101 101 97 99  5
111 108 108 108 108 113 107 113 110 104 109 106  6
104 102 104 197 126 100 100 149 190 101 105 99  7
108 106 112 345 226 104 106 302 281 102 103 104  8
104 107 104 110 102 101 107 113 114 100 102 97  9
112 105 103 106 105 103 102 103 103 100 103 101  10
114 108 106 106 102 104 106 106 105 100 102 15000  11
Chip#2
109 101 104 103 80 106 112 100 105 102 106 107  0
104 102 106 106 80 104 110 100 109 103 102 105  1
106 97 106 103 100 101 107 99 103 103 104 102  2
114 106 109 118 346 139 116 102 486 420 106 112  3
111 107 113 141 393 134 115 100 787 803 107 107  4
114 107 108 111 104 113 116 100 118 110 109 112  5
109 106 107 112 88 107 115 101 110 108 107 109  6
109 102 109 111 244 113 116 101 185 141 107 108  7
109 102 106 119 655 330 110 99 754 548 102 105  8
114 102 114 110 330 116 117 100 201 186 107 108  9
122 116 111 111 82 112 115 100 117 108 109 112  10
133 116 116 112 82 113 119 100 121 112 112 15000  11

Chip#1
110 107 108 108 101 103 103 101 103 102 110 104  0
114 108 111 110 106 104 110 108 109 108 109 107  1
110 106 109 109 100 101 106 110 105 101 102 101  2
110 108 112 302 143 101 105 261 301 104 105 101  3
101 102 103 220 107 97 103 246 284 103 99 97  4
112 106 111 107 107 104 111 112 105 106 107 99  5
103 101 98 101 101 101 105 101 101 97 102 95  6
106 106 106 194 125 103 105 151 190 102 101 102  7
101 97 107 342 217 95 98 295 275 92 98 92  8
106 105 107 108 100 100 105 110 110 98 102 98  9
111 103 109 107 102 103 106 105 102 102 106 101  10
116 103 107 102 102 99 103 108 102 101 105 15000  11
Chip#2
111 107 106 106 82 106 111 100 109 99 109 109  0
114 110 110 109 82 112 116 100 114 107 116 111  1
111 101 108 107 82 109 114 100 114 109 110 105  2
103 91 97 110 339 124 101 99 473 406 102 101  3
116 105 113 136 400 135 113 100 790 798 109 112  4
102 97 97 101 88 102 103 100 105 104 101 103  5
103 99 104 106 104 98 106 100 107 101 105 103  6
115 105 109 107 251 112 111 100 201 138 115 109  7
109 105 107 122 660 331 108 100 753 552 109 106  8
105 101 100 102 319 103 106 100 201 180 101 103  9
121 110 110 111 104 107 111 100 114 108 112 109  10
125 113 110 106 104 111 117 100 112 113 105 15000  11

Chip#1
119 108 115 112 114 114 111 112 111 112 115 115  0
106 101 103 99 97 102 107 101 98 101 95 103  1
99 96 97 101 95 94 91 93 97 97 99 96  2
111 108 113 299 146 104 103 266 302 106 106 103  3
107 101 102 220 107 103 103 246 285 104 101 98  4
110 108 106 108 103 110 107 108 107 109 103 106  5
112 108 108 109 106 105 111 103 102 103 105 104  6
106 106 106 202 129 104 106 149 190 104 103 99  7
111 106 116 357 233 113 106 309 286 109 106 108  8
107 99 102 107 96 98 100 110 106 100 101 98  9
107 103 104 99 97 98 103 105 95 103 101 102  10
115 108 107 110 105 106 111 107 103 104 105 15000  11
Chip#2
113 111 106 108 104 111 114 100 112 106 109 119  0
114 108 109 106 104 112 111 100 107 106 107 114  1
106 107 110 102 104 107 112 100 109 107 105 106  2
108 107 106 111 360 128 106 100 483 409 106 105  3
115 108 113 141 408 134 117 104 789 799 107 112  4
108 101 104 107 88 106 114 100 112 98 101 104  5
105 103 108 104 104 107 110 100 114 104 102 111  6
115 107 106 109 248 117 115 101 189 137 109 108  7
104 105 104 119 662 337 105 100 758 554 102 105  8
113 106 109 108 320 109 115 100 185 181 105 105  9
116 105 108 107 72 107 108 99 108 100 107 112  10
128 117 114 108 104 112 113 102 114 109 111 15000  11
