
Chip#1
107 100 106 101 100 103 103 100 89 102 99 103  0
97 523 829 99 979 911 114 886 495 104 876 347  1
97 752 1092 101 1125 1006 106 823 477 105 1141 463  2
104 128 125 101 144 140 108 152 108 96 143 116  3
101 844 1154 108 1097 1028 112 1273 908 105 1417 731  4
98 820 1094 105 1020 907 105 1082 788 107 1307 670  5
102 139 141 99 156 153 105 166 116 98 158 126  6
98 940 1284 98 1278 1149 103 1390 1027 95 1456 767  7
102 740 1046 101 1034 949 103 1107 807 90 1110 585  8
101 135 139 95 164 147 105 168 111 102 147 116  9
104 782 1086 102 1070 1042 107 1149 827 102 1193 606  10
110 523 780 105 850 864 110 894 648 102 776 381  11
Chip#2
114 120 116 107 117 124 119 123 126 124 122 115  0
119 422 616 123 525 664 129 437 473 126 521 405  1
128 339 488 123 427 521 130 374 473 129 564 449  2
124 133 124 123 133 133 127 138 133 129 133 127  3
120 533 698 123 601 672 134 581 634 132 669 476  4
119 335 399 123 408 444 122 458 512 129 543 417  5
129 131 130 139 135 133 135 142 138 137 134 132  6
117 541 744 123 734 654 127 685 600 125 730 484  7
123 315 386 139 422 398 134 499 417 137 484 304  8
122 125 119 123 129 126 128 135 133 132 124 121  9
119 614 744 123 747 605 128 710 570 132 777 359  10
128 214 245 139 340 288 135 381 302 135 396 211  11

Chip#1
98 96 99 89 97 97 95 102 92 96 88 92  0
85 523 838 95 982 924 106 894 499 107 880 342  1
101 764 1117 107 1152 1025 110 834 490 108 1151 468  2
92 137 129 102 144 140 111 155 107 93 142 115  3
92 855 1168 102 1104 1034 110 1295 926 108 1438 735  4
99 835 1107 95 1028 915 103 1091 793 96 1315 671  5
90 139 138 96 153 143 103 165 119 95 154 120  6
93 954 1301 105 1298 1176 105 1409 1047 95 1462 776  7
92 753 1064 89 1058 968 103 1118 813 88 1127 602  8
102 139 142 95 157 159 101 172 118 98 150 119  9
105 781 1087 105 1075 1044 107 1148 828 102 1193 605  10
100 523 782 98 851 869 103 887 644 98 772 371  11
Chip#2
112 121 114 107 121 116 124 123 120 116 120 120  0
120 422 618 107 533 663 130 437 472 130 513 409  1
123 345 488 139 439 524 128 377 417 129 559 453  2
124 133 122 123 133 130 129 130 134 127 128 123  3
118 535 692 123 602 668 125 571 626 131 671 476  4
127 348 419 139 429 454 134 467 529 138 557 431  5
127 134 127 139 136 126 137 142 131 134 133 132  6
129 550 744 123 738 666 133 692 602 140 746 492  7
120 318 382 123 424 399 136 499 417 131 478 306  8
125 131 124 123 134 127 130 137 130 134 131 129  9
117 624 744 123 750 607 127 705 570 126 777 355  10
126 214 249 123 349 300 134 382 306 136 399 211  11

Chip#1
108 103 107 99 99 103 104 103 96 102 99 101  0
107 525 831 113 983 916 110 890 499 108 872 339  1
95 756 1109 104 1151 1019 107 826 483 102 1145 462  2
107 134 126 114 146 137 108 156 110 113 142 115  3
104 851 1168 119 1109 1042 111 1287 926 107 1435 735  4
94 828 1101 105 1035 915 105 1089 791 105 1315 667  5
94 139 133 96 164 147 103 162 114 95 151 116  6
99 947 1299 104 1296 1168 110 1406 1040 95 1463 773  7
110 756 1060 107 1063 970 105 1125 819 107 1136 602  8
98 135 136 95 164 149 103 162 111 91 146 116  9
102 779 1091 104 1075 1047 104 1141 823 99 1193 601  10
111 523 779 105 851 868 114 891 642 108 776 370  11
Chip#2
117 120 117 123 120 116 119 123 120 121 126 120  0
117 422 609 123 518 649 124 426 468 124 521 394  1
113 333 488 123 429 515 119 369 467 120 552 443  2
122 127 122 123 129 128 125 131 129 122 124 125  3
114 528 695 107 593 662 125 567 627 122 665 458  4
127 346 420 139 427 458 134 467 531 138 557 438  5
117 128 122 123 128 127 132 131 137 131 131 129  6
128 552 744 139 742 662 140 690 608 141 745 495  7
116 317 381 123 424 398 128 499 424 126 488 306  8
119 123 119 107 128 119 127 129 128 129 127 122  9
118 618 744 123 746 602 128 704 566 129 777 358  10
120 198 243 123 347 286 129 382 295 129 393 202  11

Chip#1
110 114 117 113 112 116 116 115 112 116 116 115  0
108 525 831 107 983 922 110 891 502 107 878 342  1
101 752 1101 104 1151 1012 107 826 484 96 1145 460  2
104 128 128 110 141 137 111 150 112 101 147 113  3
104 855 1167 104 1109 1041 114 1284 925 112 1431 741  4
93 831 1092 104 1020 913 103 1090 789 96 1308 667  5
108 138 135 107 152 146 111 162 121 108 156 126  6
101 946 1296 113 1291 1168 108 1401 1040 105 1466 776  7
108 755 1059 107 1056 964 106 1116 814 98 1126 597  8
107 139 142 108 164 156 108 165 118 112 148 120  9
110 779 1089 104 1071 1039 105 1141 829 104 1193 602  10
111 523 781 108 853 868 112 889 649 107 779 374  11
Chip#2
112 114 110 123 126 117 118 118 123 121 122 120  0
113 411 599 123 517 651 119 426 461 124 521 391  1
114 330 488 123 427 519 122 368 460 126 558 443  2
123 124 124 123 128 128 124 131 131 131 129 127  3
126 538 697 123 602 667 135 580 631 136 668 476  4
125 345 423 123 426 455 130 471 531 138 562 435  5
123 127 126 123 132 129 133 133 135 131 132 123  6
119 535 744 123 734 645 128 676 594 126 730 482  7
125 330 387 123 431 405 135 499 417 135 489 309  8
124 123 120 123 129 130 132 132 129 130 131 123  9
118 615 736 123 747 601 130 703 569 129 777 358  10
126 214 247 139 352 293 128 380 303 132 400 202  11

Chip#1
104 103 110 107 107 103 112 102 102 96 121 106  0
107 524 834 104 986 916 116 893 499 112 877 345  1
108 751 1095 108 1145 1013 114 822 480 107 1137 460  2
110 128 129 102 148 133 105 149 105 101 140 112  3
111 853 1161 113 1107 1035 112 1287 911 112 1425 734  4
102 828 1095 104 1026 907 107 1090 787 105 1310 661  5
107 135 133 98 155 146 107 161 119 98 148 123  6
114 945 1285 114 1287 1161 114 1400 1027 101 1448 767  7
113 757 1055 102 1059 958 112 1114 811 105 1127 594  8
122 141 146 108 157 159 116 165 122 110 151 122  9
114 779 1087 114 1068 1039 111 1139 829 102 1189 605  10
114 523 781 104 855 862 112 891 640 107 772 370  11
Chip#2
113 115 113 120 119 110 114 118 116 120 117 116  0
118 438 605 120 519 649 126 430 465 132 521 401  1
118 332 488 120 436 518 125 374 465 130 561 450  2
117 118 123 120 125 126 125 126 126 126 124 122  3
119 530 685 120 598 661 128 574 626 129 662 470  4
113 336 412 120 409 445 124 460 512 122 545 423  5
125 134 129 120 135 129 136 133 136 137 136 128  6
125 541 727 120 734 646 133 680 590 130 724 479  7
123 324 389 120 427 400 129 502 418 135 482 308  8
118 124 117 120 126 122 127 126 124 126 127 122  9
123 617 744 120 745 600 136 703 569 132 793 360  10
114 198 241 120 342 284 126 371 294 122 390 200  11

Chip#1
99 98 100 93 102 102 103 100 92 93 89 96  0
104 523 825 96 982 917 104 884 495 102 869 333  1
105 766 1101 105 1154 1019 108 833 491 108 1147 463  2
98 131 128 102 146 136 108 147 102 102 140 115  3
100 849 1154 108 1103 1033 110 1281 913 107 1424 730  4
97 826 1085 93 1022 907 103 1086 781 101 1301 658  5
101 139 138 104 156 147 107 166 122 99 152 122  6
105 946 1287 101 1293 1167 106 1403 1034 91 1453 767  7
101 755 1055 98 1059 962 103 1125 811 95 1126 594  8
107 143 146 108 164 159 108 172 121 108 152 120  9
111 779 1070 111 1066 1034 110 1141 823 105 1192 598  10
113 523 779 107 857 866 112 895 642 104 771 367  11
Chip#2
107 109 103 122 114 109 111 111 115 108 114 111  0
106 422 589 122 511 636 117 419 457 111 521 385  1
112 333 476 122 426 511 120 364 457 118 559 441  2
128 133 126 122 135 129 130 132 134 131 133 129  3
120 530 684 122 600 655 128 574 627 132 665 470  4
117 339 412 122 418 444 125 459 517 126 551 426  5
125 128 129 122 132 132 130 135 136 131 133 129  6
118 542 721 122 734 641 129 679 587 126 729 474  7
125 324 385 122 431 401 132 499 417 130 488 307  8
125 133 130 122 134 128 133 135 135 131 133 129  9
117 609 733 122 738 593 127 700 565 121 777 351  10
118 198 237 122 341 279 124 374 294 120 388 195  11

Chip#1
98 99 106 99 101 102 103 103 96 96 99 99  0
96 523 825 95 983 915 103 878 494 98 869 333  1
95 749 1086 102 1142 1004 104 818 477 99 1141 450  2
107 127 122 108 140 131 102 146 108 96 140 110  3
102 850 1152 107 1105 1028 111 1283 908 102 1419 729  4
104 827 1087 107 1027 908 108 1089 781 105 1306 663  5
101 140 138 104 164 150 111 165 116 102 158 122  6
107 942 1278 105 1289 1154 111 1394 1024 102 1450 761  7
107 752 1056 105 1052 957 107 1118 809 99 1125 589  8
102 134 135 99 164 147 108 161 115 104 143 116  9
105 779 1076 107 1060 1033 106 1139 821 107 1193 602  10
107 525 778 104 853 868 114 893 646 104 780 370  11
Chip#2
116 120 114 122 122 112 116 119 121 119 121 119  0
118 422 591 122 525 648 125 426 461 124 521 396  1
111 332 477 122 430 509 116 372 405 121 550 439  2
119 125 126 122 128 126 128 135 133 129 126 128  3
118 528 679 122 592 651 125 565 616 126 653 467  4
120 340 407 122 422 447 125 460 516 127 551 427  5
126 129 124 122 139 126 132 132 133 132 130 132  6
120 535 717 122 734 643 121 669 587 124 721 474  7
119 319 386 122 426 400 129 499 424 124 480 301  8
126 127 124 122 130 124 128 132 131 127 126 122  9
125 617 730 122 737 593 130 700 567 130 777 354  10
116 198 241 122 341 283 122 376 297 116 387 198  11

Chip#1
102 105 104 102 103 103 103 100 96 98 99 101  0
102 525 828 104 982 916 108 890 494 102 878 339  1
100 755 1089 107 1154 1008 105 823 483 98 1136 460  2
105 128 129 111 143 134 111 149 113 98 143 112  3
100 853 1152 111 1100 1029 107 1286 907 105 1427 725  4
105 831 1087 108 1023 909 108 1085 784 101 1304 662  5
108 144 142 101 156 152 112 166 122 98 160 124  6
111 952 1286 111 1294 1162 111 1404 1038 99 1456 763  7
102 749 1046 98 1050 951 103 1112 806 88 1108 582  8
108 141 146 102 164 153 107 165 119 101 148 117  9
108 773 1078 107 1066 1030 107 1139 818 95 1187 595  10
108 523 770 101 849 857 108 887 638 98 770 365  11
Chip#2
118 123 120 122 128 122 125 124 128 122 127 123  0
112 411 587 122 515 643 119 418 455 119 494 385  1
124 334 488 122 435 519 124 372 455 126 561 450  2
120 129 122 122 132 127 130 131 130 131 130 125  3
122 528 685 122 596 656 129 565 621 136 664 473  4
113 337 406 122 418 445 122 459 515 125 547 423  5
128 134 127 122 141 130 136 135 138 137 137 133  6
118 529 716 122 725 632 128 677 589 125 717 476  7
103 312 372 119 420 386 117 481 402 116 466 294  8
112 118 119 119 127 119 124 124 124 124 122 121  9
113 604 720 119 734 583 120 687 557 119 765 346  10
120 198 243 119 349 285 129 383 299 130 397 186  11

Chip#1
101 91 97 96 93 96 98 96 87 90 85 94  0
102 524 818 104 986 909 111 885 493 107 869 333  1
105 756 1089 98 1147 1010 107 825 483 98 1139 460  2
98 128 123 98 142 131 103 149 105 96 139 115  3
92 845 1151 93 1105 1030 105 1283 905 104 1426 725  4
96 826 1079 93 1022 903 103 1084 776 93 1298 655  5
104 140 142 102 164 144 108 165 121 96 152 120  6
95 943 1285 99 1291 1156 103 1399 1028 90 1448 756  7
105 752 1048 101 1051 956 103 1112 803 96 1121 586  8
101 141 142 96 156 150 108 165 119 101 150 116  9
97 779 1074 104 1060 1025 103 1136 817 95 1187 591  10
111 520 774 108 857 863 107 891 643 99 772 374  11
Chip#2
113 112 110 119 117 113 113 120 120 116 118 119  0
107 405 581 119 515 631 122 417 457 120 493 385  1
123 349 480 119 438 523 129 380 416 130 565 451  2
113 121 114 119 123 116 121 125 128 121 121 121  3
116 518 673 119 588 645 124 559 606 129 651 458  4
119 337 406 119 424 461 122 457 519 130 550 429  5
125 129 123 119 129 129 129 136 134 132 129 126  6
123 533 713 119 725 638 130 673 584 129 721 476  7
117 318 385 119 428 396 126 499 424 129 481 302  8
119 118 120 119 130 122 126 127 131 127 127 125  9
119 608 724 119 725 584 124 690 556 125 768 354  10
116 214 241 119 344 284 130 377 297 127 396 202  11

Chip#1
111 114 116 110 110 108 111 109 110 110 109 110  0
107 523 817 111 979 907 111 882 487 105 867 331  1
107 749 1083 108 1139 1003 107 813 473 96 1127 448  2
111 130 128 105 140 133 108 149 112 102 138 112  3
102 846 1149 99 1108 1024 110 1280 899 108 1415 729  4
105 824 1073 110 1026 900 108 1084 780 102 1298 659  5
110 143 141 111 156 152 114 168 124 102 158 129  6
107 940 1278 114 1290 1152 110 1391 1017 105 1440 755  7
117 751 1051 110 1053 961 114 1108 806 108 1110 588  8
114 138 146 110 164 150 112 168 121 111 151 123  9
100 779 1074 107 1063 1024 110 1130 811 101 1187 595  10
120 523 776 116 846 858 125 887 636 111 771 371  11
Chip#2
123 124 120 119 127 120 124 126 127 125 122 122  0
120 422 591 119 516 644 122 425 459 125 521 393  1
119 343 480 119 438 518 125 372 408 125 555 445  2
120 121 119 119 128 123 125 126 124 122 127 125  3
125 524 677 119 590 651 128 568 614 132 659 467  4
113 336 398 118 408 445 116 452 509 121 542 415  5
128 130 129 117 139 129 133 136 137 136 133 135  6
128 541 717 117 725 645 134 680 587 130 726 477  7
125 325 386 117 429 401 130 499 417 131 488 302  8
126 130 128 117 136 128 133 137 134 134 132 135  9
123 609 726 117 725 585 130 690 557 132 765 354  10
125 214 247 117 351 293 130 387 300 125 399 211  11

Chip#1
116 110 118 108 111 108 111 111 104 108 109 108  0
107 523 818 105 975 904 111 881 487 108 866 331  1
105 758 1087 108 1148 1007 110 823 476 105 1131 460  2
104 131 128 108 140 131 108 149 111 104 143 115  3
107 846 1140 113 1096 1019 114 1278 893 118 1424 721  4
104 826 1076 104 1018 899 105 1085 773 105 1303 655  5
104 139 139 101 152 147 107 166 122 101 154 123  6
96 947 1278 107 1291 1153 108 1395 1026 101 1448 756  7
99 753 1041 102 1047 956 103 1113 799 96 1113 583  8
104 143 148 105 156 155 103 168 125 101 151 126  9
114 779 1069 111 1062 1028 110 1132 809 102 1185 593  10
105 523 768 102 847 857 110 882 634 102 770 367  11
Chip#2
105 114 103 119 114 110 113 114 118 118 120 117  0
117 410 582 119 515 632 124 418 455 124 493 382  1
113 335 475 119 434 511 120 370 405 124 552 443  2
118 122 119 119 122 122 126 125 125 122 126 123  3
116 521 675 119 593 645 125 561 610 126 651 467  4
119 342 410 119 424 461 128 461 516 129 547 429  5
114 121 120 119 121 123 127 126 128 131 128 119  6
118 527 702 119 709 630 128 667 580 131 715 471  7
123 321 389 119 432 403 133 499 424 130 482 309  8
119 123 120 119 123 122 125 124 125 126 121 126  9
112 602 720 119 734 582 126 683 556 130 759 349  10
114 214 243 119 346 286 122 374 291 125 396 202  11

Chip#1
105 102 107 99 103 103 103 100 96 98 100 101  0
107 529 818 107 988 909 111 887 498 110 868 335  1
107 749 1079 101 1141 999 107 816 471 96 1122 445  2
108 134 132 102 146 136 111 155 110 102 146 115  3
101 849 1140 107 1105 1022 114 1283 901 105 1415 729  4
110 823 1081 105 1023 902 108 1080 776 102 1301 657  5
108 140 142 102 164 149 105 166 122 96 159 126  6
110 950 1278 122 1296 1160 112 1400 1027 108 1445 759  7
104 749 1039 99 1044 949 103 1105 798 98 1104 579  8
105 140 148 101 164 157 108 169 118 105 150 120  9
102 779 1076 108 1068 1026 108 1139 819 98 1190 602  10
128 523 772 107 850 857 112 886 638 105 775 370  11
Chip#2
117 118 117 119 126 119 120 124 125 122 122 125  0
123 411 587 119 515 639 127 418 458 125 501 397  1
112 333 477 119 429 511 122 369 406 121 550 441  2
114 121 117 119 125 122 121 130 124 125 124 125  3
122 524 679 119 587 647 133 566 616 130 655 467  4
124 344 417 119 426 445 129 466 519 132 552 432  5
113 127 123 119 127 125 125 129 133 126 121 122  6
123 529 709 119 725 632 128 663 583 134 718 477  7
126 324 393 119 430 402 132 499 417 135 484 313  8
125 134 129 119 138 135 133 137 135 134 133 131  9
113 604 716 119 725 580 124 683 551 127 761 343  10
114 214 246 119 345 283 119 376 293 122 391 202  11

Chip#1
102 102 100 98 102 102 107 103 96 99 104 98  0
104 523 814 104 972 900 107 881 486 102 861 323  1
102 753 1083 105 1142 1012 106 816 477 104 1130 460  2
98 130 126 98 144 137 103 150 105 96 140 115  3
102 850 1147 107 1107 1029 107 1284 900 104 1421 724  4
101 828 1079 104 1022 906 107 1086 779 101 1308 657  5
105 139 138 102 164 147 112 166 118 98 154 127  6
101 942 1275 101 1291 1152 105 1394 1018 98 1440 752  7
105 747 1043 105 1050 953 108 1104 797 105 1105 579  8
98 143 142 99 164 149 103 172 118 99 144 122  9
110 779 1074 110 1067 1021 110 1145 810 101 1185 591  10
113 525 780 113 855 863 114 891 642 98 776 373  11
Chip#2
114 120 113 119 125 117 117 123 120 122 123 119  0
111 409 585 119 512 637 121 422 453 121 488 389  1
124 345 488 119 438 519 124 374 452 127 559 448  2
122 122 122 119 132 122 125 132 127 120 127 121  3
116 521 667 119 589 641 124 557 610 127 644 458  4
125 348 419 119 428 455 133 467 524 135 561 431  5
116 121 116 119 126 125 124 126 126 125 122 123  6
125 536 704 119 725 635 133 670 580 132 718 470  7
122 327 392 119 431 407 130 499 417 131 484 309  8
118 124 122 119 129 123 121 129 129 125 124 122  9
124 607 718 119 734 583 122 681 553 132 764 352  10
120 214 247 119 350 287 124 379 298 130 395 202  11

Chip#1
110 103 106 96 97 105 107 100 98 101 104 105  0
101 523 814 99 971 909 112 881 488 102 863 332  1
93 749 1082 95 1146 1001 104 817 473 98 1123 456  2
95 126 119 95 134 128 98 143 101 91 136 109  3
98 847 1149 99 1109 1025 111 1286 905 105 1426 730  4
101 837 1081 96 1023 908 104 1086 780 96 1311 663  5
100 135 133 96 150 141 103 161 118 90 152 122  6
101 940 1267 108 1286 1149 110 1390 1015 93 1440 756  7
102 747 1046 93 1052 950 103 1109 798 96 1107 588  8
102 138 141 98 164 157 103 165 116 98 143 120  9
107 764 1065 101 1053 1010 108 1122 803 105 1179 587  10
110 523 771 104 845 858 112 880 635 104 770 365  11
Chip#2
117 116 113 122 116 114 122 126 120 119 120 120  0
112 406 575 122 506 635 118 412 450 121 489 379  1
110 333 470 122 430 511 122 369 401 116 550 437  2
123 123 123 122 134 128 127 133 131 131 124 127  3
114 516 663 122 579 637 122 553 602 129 641 458  4
125 350 420 122 427 452 135 467 519 139 555 436  5
120 127 123 122 133 128 128 131 129 131 123 125  6
124 538 716 122 725 641 137 669 587 141 723 477  7
123 326 387 122 429 401 133 500 417 135 483 306  8
117 120 115 122 126 125 124 123 123 124 122 123  9
122 602 720 122 725 585 129 683 551 135 761 354  10
119 214 247 122 353 292 128 383 301 137 397 211  11

Chip#1
102 107 112 104 106 106 107 106 104 102 100 101  0
102 523 823 102 982 911 112 885 491 105 866 334  1
108 757 1087 101 1151 1003 112 821 482 105 1122 453  2
100 130 125 96 144 133 104 149 105 95 136 110  3
97 842 1140 98 1101 1016 108 1273 895 101 1421 716  4
98 828 1077 104 1027 906 108 1082 779 101 1301 661  5
102 137 133 93 150 138 104 162 116 95 150 117  6
105 947 1275 111 1287 1151 105 1392 1019 96 1446 759  7
98 753 1043 93 1052 950 103 1113 794 96 1111 586  8
95 141 142 93 164 157 103 168 119 93 150 116  9
101 779 1068 99 1055 1019 104 1132 813 98 1181 588  10
114 517 767 113 849 851 110 882 632 105 766 365  11
Chip#2
104 110 107 120 119 115 112 119 117 114 116 115  0
113 407 581 120 517 638 129 423 454 127 490 388  1
116 334 475 120 430 512 124 372 406 122 551 441  2
114 122 117 120 127 122 122 132 125 120 126 123  3
118 520 659 120 580 643 126 558 607 132 644 458  4
116 339 410 120 427 444 127 461 517 131 550 425  5
117 125 123 120 129 129 132 131 126 134 126 127  6
123 536 706 120 725 631 134 666 572 134 711 474  7
119 320 386 120 427 392 129 499 424 132 485 306  8
120 124 121 120 126 124 125 133 128 122 123 122  9
113 599 706 120 725 571 121 678 544 126 752 345  10
124 214 251 120 351 288 130 384 303 131 400 211  11

Chip#1
102 103 104 99 100 105 103 103 92 98 101 96  0
96 523 806 99 972 900 107 885 490 99 860 327  1
96 755 1077 96 1133 994 103 817 475 96 1120 446  2
105 133 126 101 140 137 106 155 108 93 143 113  3
97 849 1150 102 1114 1029 111 1281 905 107 1426 729  4
101 826 1073 102 1020 903 103 1084 772 98 1297 658  5
101 144 138 98 164 147 110 169 122 93 158 127  6
98 941 1268 102 1280 1144 105 1380 1013 93 1440 759  7
107 751 1046 102 1050 944 108 1107 801 95 1113 582  8
105 137 141 104 155 153 104 161 118 107 148 122  9
104 779 1061 101 1056 1017 103 1131 809 95 1182 590  10
108 523 767 113 846 852 112 886 635 98 771 365  11
Chip#2
116 121 109 120 122 112 117 118 121 121 121 117  0
116 407 578 120 508 627 118 412 444 125 487 378  1
116 334 480 120 426 508 118 370 444 122 552 441  2
120 125 123 120 130 123 120 131 127 129 128 128  3
124 520 663 120 582 644 125 554 603 131 650 458  4
120 343 412 120 423 448 129 462 516 132 553 425  5
122 123 120 120 127 125 128 130 130 127 126 123  6
117 529 702 120 703 629 125 658 571 124 710 467  7
120 318 382 120 426 395 125 499 424 127 481 303  8
119 125 121 120 128 125 126 131 127 127 126 127  9
124 610 720 120 725 587 130 684 554 136 762 353  10
120 214 251 120 352 287 126 381 299 129 397 202  11

Chip#1
108 105 110 105 100 103 108 103 99 107 107 108  0
100 524 819 104 975 906 108 882 486 104 861 333  1
93 749 1074 98 1137 1002 104 810 467 99 1123 445  2
99 130 119 95 143 133 103 147 101 88 143 113  3
105 842 1141 108 1101 1024 115 1272 895 113 1417 721  4
101 827 1078 98 1023 903 104 1087 775 102 1299 657  5
104 137 136 102 153 143 107 163 119 102 154 119  6
101 938 1267 111 1282 1152 108 1386 1013 104 1434 756  7
108 747 1042 107 1046 949 114 1104 801 99 1113 587  8
107 138 146 99 164 155 104 166 114 98 152 122  9
95 771 1072 96 1063 1016 103 1130 809 88 1184 590  10
110 523 763 101 845 852 112 876 634 99 767 363  11
Chip#2
111 117 112 119 117 113 116 114 117 114 116 116  0
117 412 580 119 511 635 126 419 450 124 489 389  1
116 340 488 119 435 521 124 371 450 127 553 447  2
114 118 120 119 126 124 120 126 126 124 122 128  3
116 514 658 119 581 636 120 554 603 126 642 467  4
114 339 414 119 423 461 124 461 517 126 544 424  5
120 120 122 119 128 124 122 126 129 125 127 122  6
118 527 695 119 708 628 124 654 570 129 702 467  7
118 319 386 119 423 400 126 499 414 122 474 303  8
117 124 120 119 128 123 124 129 126 121 123 122  9
114 591 702 119 709 569 114 674 542 118 748 340  10
123 214 243 119 346 285 125 378 295 125 397 198  11

Chip#1
104 105 110 102 105 109 105 105 98 107 101 106  0
102 528 818 104 978 907 114 889 491 104 866 335  1
95 752 1082 98 1135 999 103 816 476 99 1120 449  2
100 127 122 101 140 134 106 146 105 99 136 112  3
100 832 1132 102 1092 1010 107 1269 887 104 1409 716  4
93 820 1065 92 1018 897 95 1073 763 91 1291 648  5
100 139 142 101 156 147 108 166 119 104 158 123  6
104 940 1271 105 1286 1148 108 1382 1020 101 1441 759  7
102 751 1037 98 1046 949 105 1104 795 93 1107 585  8
108 135 139 96 152 153 103 162 110 101 146 117  9
100 779 1067 99 1054 1016 108 1125 806 98 1180 587  10
108 516 764 93 842 846 105 876 630 99 763 359  11
Chip#2
117 122 115 119 126 114 125 124 125 121 123 120  0
116 404 574 119 506 635 119 418 451 126 485 382  1
118 338 477 119 431 516 118 369 403 125 551 443  2
117 120 115 119 123 119 124 124 126 121 126 121  3
130 528 678 119 597 655 136 571 618 142 653 467  4
120 339 406 119 421 443 125 457 517 126 551 425  5
119 120 120 119 129 125 128 131 128 127 126 127  6
125 539 706 119 725 633 134 661 580 134 710 468  7
122 323 386 119 433 406 132 500 416 137 487 309  8
114 121 115 119 129 124 120 127 128 121 122 121  9
116 595 707 119 725 577 118 682 545 124 750 342  10
117 214 242 119 348 280 118 376 293 124 394 199  11

Chip#1
110 112 118 108 108 105 111 108 112 102 104 113  0
108 523 815 105 982 908 114 885 491 107 860 332  1
107 746 1074 108 1134 998 110 809 467 107 1115 440  2
102 127 128 107 140 136 107 146 115 99 139 113  3
109 838 1133 117 1096 1017 119 1271 892 119 1416 716  4
114 826 1069 111 1014 900 114 1078 767 113 1294 642  5
114 137 139 105 150 144 114 162 118 105 150 120  6
110 945 1276 108 1282 1153 116 1390 1018 102 1441 760  7
110 748 1038 105 1043 948 112 1100 794 110 1102 577  8
110 135 142 102 155 150 116 163 118 107 143 115  9
119 769 1064 111 1055 1016 116 1127 805 107 1176 591  10
108 523 766 102 845 852 112 884 636 107 765 365  11
Chip#2
118 123 119 119 128 118 121 125 121 127 121 123  0
117 410 578 119 513 637 125 417 453 124 488 387  1
114 332 472 119 433 516 121 366 405 122 549 441  2
117 123 120 119 128 120 125 125 130 127 126 122  3
120 522 666 119 586 643 128 556 608 132 644 467  4
116 346 412 119 422 448 122 460 513 126 548 429  5
126 122 122 119 127 127 128 131 129 127 129 121  6
116 526 699 119 725 626 127 655 573 126 706 467  7
123 327 389 119 427 399 128 499 424 130 477 307  8
117 124 126 119 129 127 125 130 129 125 128 125  9
122 605 717 119 725 583 130 683 557 126 761 351  10
116 214 252 119 347 287 127 380 301 125 394 202  11

Chip#1
105 114 112 107 106 115 105 112 102 113 100 109  0
89 516 810 93 968 900 103 873 478 93 855 327  1
105 746 1074 114 1137 997 107 813 471 102 1116 445  2
98 131 126 96 146 140 105 155 107 90 139 110  3
110 841 1141 113 1105 1020 116 1272 896 110 1414 717  4
102 822 1067 98 1018 895 103 1074 765 101 1292 645  5
113 138 136 107 156 147 114 160 118 107 152 124  6
104 945 1271 108 1289 1148 110 1394 1018 102 1436 756  7
98 748 1043 99 1052 939 103 1104 794 98 1104 578  8
108 137 145 102 164 150 105 165 116 108 144 122  9
111 765 1057 107 1053 1010 107 1126 805 102 1171 594  10
105 516 762 104 845 850 103 876 631 98 762 358  11
Chip#2
112 117 112 119 119 115 119 115 117 115 117 117  0
114 401 574 119 512 629 121 417 451 126 490 383  1
113 336 472 119 435 515 124 369 406 125 552 436  2
118 127 121 119 129 123 128 130 128 129 127 129  3
123 520 665 119 584 646 125 557 610 132 651 458  4
117 343 411 119 428 444 127 457 517 131 551 429  5
117 127 119 119 129 123 128 133 129 134 123 123  6
118 526 697 119 706 625 124 660 572 129 709 458  7
116 320 388 119 430 398 130 499 424 129 482 301  8
118 124 120 119 128 119 126 129 126 130 129 121  9
118 602 711 119 734 574 124 682 546 127 755 345  10
119 214 245 119 351 284 122 379 294 124 395 198  11

Chip#1
101 103 100 101 99 100 105 105 104 99 99 106  0
96 523 813 102 976 904 111 881 482 102 863 332  1
101 752 1083 107 1147 1003 111 822 477 104 1128 460  2
96 127 125 104 140 133 103 149 106 95 135 112  3
101 844 1140 104 1105 1024 114 1278 895 99 1421 725  4
102 827 1073 104 1026 906 108 1081 771 98 1304 658  5
104 139 142 107 164 146 108 163 119 95 155 126  6
105 943 1270 111 1290 1151 108 1389 1014 101 1436 751  7
108 748 1047 105 1050 949 103 1108 794 99 1107 585  8
93 134 136 95 152 147 103 159 113 91 139 119  9
107 779 1069 102 1062 1017 110 1135 811 98 1180 595  10
113 528 778 108 858 856 118 891 639 107 774 375  11
Chip#2
110 116 106 119 122 115 116 118 118 115 117 114  0
110 400 569 119 511 629 114 411 448 118 490 382  1
117 339 477 119 437 519 124 371 407 119 559 444  2
114 121 116 119 126 122 117 127 123 119 129 122  3
113 523 666 119 588 646 119 556 611 124 650 458  4
116 342 405 119 424 445 120 459 519 126 557 425  5
125 128 126 119 134 125 129 137 136 130 130 129  6
119 528 698 119 725 627 124 665 580 127 714 467  7
118 323 394 119 432 400 127 500 417 121 485 308  8
114 123 122 119 133 124 127 130 134 132 127 126  9
112 602 714 119 725 575 121 676 547 118 756 341  10
113 198 243 119 347 283 121 383 297 121 397 202  11

Chip#1
110 105 110 105 105 103 105 105 98 104 101 102  0
110 532 823 110 991 918 114 891 493 104 873 338  1
107 751 1079 105 1154 1007 108 818 473 104 1132 453  2
99 127 122 99 139 133 98 146 101 91 139 109  3
102 854 1147 102 1113 1032 114 1287 900 108 1434 728  4
107 827 1073 104 1026 902 110 1082 772 105 1303 650  5
107 141 138 111 153 146 108 162 118 98 154 123  6
97 942 1271 102 1289 1148 103 1392 1013 93 1447 751  7
101 752 1039 101 1054 949 107 1114 797 96 1118 588  8
102 138 142 101 156 155 104 163 122 104 144 124  9
108 779 1072 107 1054 1014 107 1139 805 98 1183 593  10
108 516 767 102 845 852 111 890 628 101 767 365  11
Chip#2
109 114 108 119 117 109 114 117 121 116 121 115  0
119 422 579 119 527 644 121 419 455 127 499 394  1
118 339 472 119 442 526 120 375 409 134 562 451  2
123 124 124 119 127 125 122 132 125 131 122 123  3
123 530 673 119 596 651 124 568 616 129 664 458  4
125 350 420 119 436 457 132 469 532 136 565 437  5
118 127 122 119 128 124 129 132 131 130 126 123  6
123 542 716 119 734 643 130 680 592 137 725 479  7
120 330 392 119 437 405 125 504 419 134 494 313  8
114 123 122 119 123 124 125 126 129 130 128 127  9
118 611 721 119 725 583 120 690 561 125 761 351  10
116 214 245 119 350 287 119 387 303 127 397 211  11

Chip#1
110 100 106 99 97 100 105 105 89 102 101 101  0
95 523 813 108 994 921 110 881 488 107 871 338  1
100 747 1070 101 1151 1015 104 810 465 102 1131 460  2
110 133 129 105 146 137 107 149 105 99 142 117  3
111 854 1158 114 1118 1037 118 1299 908 115 1438 738  4
110 836 1089 110 1036 909 112 1095 784 105 1323 667  5
111 139 139 107 155 152 114 166 118 104 154 126  6
116 956 1285 114 1300 1162 114 1400 1028 101 1451 765  7
102 752 1050 98 1050 953 104 1113 799 98 1113 586  8
111 138 139 107 155 152 105 162 112 108 144 115  9
116 780 1077 113 1070 1030 111 1148 817 108 1195 601  10
114 523 774 105 850 858 114 889 632 99 774 365  11
Chip#2
116 122 115 119 127 118 121 127 124 124 124 123  0
114 422 575 119 532 654 127 419 455 126 537 396  1
114 332 472 119 447 528 117 367 400 120 565 451  2
114 117 112 119 123 117 118 126 127 126 120 119  3
119 538 690 119 608 663 127 574 628 130 676 474  4
118 355 425 119 438 459 126 476 535 131 571 444  5
117 121 119 119 123 123 122 130 127 129 123 122  6
119 546 727 119 740 648 124 688 596 127 734 479  7
123 333 400 119 446 410 130 516 425 129 502 314  8
119 121 117 119 127 122 120 130 126 129 124 125  9
117 624 744 119 747 598 125 707 567 127 793 357  10
120 214 260 119 361 298 119 394 307 129 409 202  11

Chip#1
111 112 116 110 107 111 110 106 105 110 105 113  0
105 524 812 107 1010 931 115 884 486 108 886 342  1
105 746 1076 111 1171 1021 108 804 467 105 1150 460  2
104 126 125 111 139 133 107 147 110 102 142 117  3
107 868 1165 107 1133 1046 112 1300 919 105 1458 739  4
104 838 1099 110 1047 918 105 1109 789 105 1327 676  5
105 140 142 107 156 155 111 174 121 104 156 129  6
102 965 1294 105 1311 1180 110 1429 1043 95 1478 769  7
114 766 1068 111 1075 975 108 1141 815 108 1136 599  8
122 144 143 113 161 155 114 171 121 114 152 126  9
110 795 1094 116 1087 1047 111 1163 837 102 1214 614  10
119 530 789 111 865 868 115 908 651 108 786 378  11
Chip#2
117 114 109 119 125 116 117 118 119 121 118 117  0
116 403 575 119 543 701 121 418 444 122 521 408  1
119 338 472 119 469 560 127 374 405 126 593 468  2
118 123 124 119 126 130 126 133 130 131 128 126  3
122 557 719 119 626 717 126 592 648 135 702 497  4
120 361 441 119 452 474 125 490 551 127 595 455  5
120 125 122 119 132 128 126 136 133 130 127 121  6
116 558 744 119 754 670 125 703 610 126 750 490  7
114 337 410 119 452 421 125 526 434 127 512 317  8
118 124 120 119 130 129 125 131 126 126 127 127  9
124 650 760 119 772 618 130 734 587 132 810 371  10
112 198 250 119 368 295 124 396 313 122 415 202  11

Chip#1
114 105 112 104 102 103 115 105 101 99 111 108  0
104 522 810 102 1023 940 110 878 487 102 900 342  1
96 755 1073 110 1181 1039 103 816 472 96 1169 467  2
86 131 122 87 146 136 103 153 101 81 140 113  3
104 881 1185 104 1155 1065 112 1341 938 108 1489 754  4
95 856 1117 95 1060 939 103 1130 806 98 1358 684  5
96 139 141 101 156 149 105 166 124 93 156 130  6
93 983 1322 107 1340 1196 106 1453 1060 96 1502 790  7
102 783 1081 102 1093 985 110 1153 831 98 1154 603  8
105 139 141 96 156 153 103 171 113 98 150 115  9
102 799 1110 104 1096 1056 103 1181 838 101 1234 612  10
110 538 797 98 880 885 108 920 666 101 803 385  11
Chip#2
124 122 114 119 123 124 122 126 127 121 122 123  0
109 400 569 122 567 717 118 412 446 121 546 415  1
125 343 477 122 487 579 128 376 411 132 620 489  2
116 115 113 122 121 119 118 122 124 118 116 117  3
122 567 744 122 650 703 128 616 673 129 724 504  4
123 374 456 122 469 491 130 514 574 139 616 478  5
123 122 124 122 132 124 129 132 134 130 126 126  6
123 586 768 122 796 717 130 737 637 130 793 515  7
126 350 429 122 478 461 129 552 453 131 539 331  8
119 117 119 122 123 119 122 125 124 127 121 121  9
124 694 785 122 807 637 129 761 620 127 842 381  10
122 214 265 122 378 310 127 414 322 126 438 211  11

Chip#1
96 95 94 90 99 100 103 99 86 95 93 94  0
95 520 813 95 1031 948 108 878 486 101 904 345  1
95 752 1081 96 1194 1056 105 818 471 102 1188 475  2
97 131 126 96 150 135 103 152 104 95 140 119  3
104 892 1194 107 1164 1082 112 1348 952 108 1507 760  4
95 865 1124 95 1075 949 105 1139 811 101 1369 690  5
92 140 141 95 164 152 103 169 118 88 158 124  6
104 991 1334 114 1359 1210 107 1470 1072 101 1520 797  7
98 787 1103 99 1110 995 103 1169 834 95 1163 611  8
100 140 146 105 164 156 103 169 119 107 148 124  9
107 818 1123 110 1116 1069 107 1200 852 102 1249 625  10
98 542 810 98 890 893 104 933 676 87 807 386  11
Chip#2
119 124 117 122 123 122 121 126 128 126 122 121  0
126 412 581 122 597 732 129 426 458 134 574 441  1
114 335 474 122 494 591 126 371 406 127 632 496  2
120 116 122 122 128 123 125 130 126 121 120 122  3
125 597 766 122 673 734 134 643 698 140 752 532  4
124 386 471 122 482 511 132 526 596 134 634 485  5
122 129 123 122 135 132 134 135 133 131 127 132  6
117 603 786 122 816 708 126 755 655 126 803 528  7
118 366 433 122 487 451 130 571 467 127 555 341  8
117 125 120 122 129 125 126 130 128 126 124 125  9
125 726 817 122 834 662 130 788 632 129 872 396  10
118 230 271 122 394 314 126 431 332 129 447 215  11

Chip#1
98 102 106 101 99 105 103 105 92 96 100 105  0
102 523 815 92 1048 964 103 882 491 99 919 347  1
107 757 1077 110 1209 1065 107 814 472 107 1197 478  2
98 127 126 96 150 138 103 147 107 85 140 116  3
95 902 1212 101 1177 1089 108 1361 960 99 1520 768  4
104 873 1140 105 1088 965 103 1151 817 104 1381 693  5
98 141 142 99 164 155 107 166 119 99 158 126  6
107 1005 1350 110 1373 1219 104 1486 1079 98 1540 804  7
101 805 1112 101 1118 1007 107 1182 850 96 1184 623  8
105 143 148 99 164 160 104 172 121 96 154 120  9
102 819 1136 104 1129 1087 103 1214 864 93 1261 628  10
116 550 814 102 905 908 104 958 679 101 825 392  11
Chip#2
113 118 113 122 119 116 117 118 124 121 118 117  0
112 403 570 120 602 739 118 412 446 121 580 441  1
125 345 488 120 515 609 132 381 446 131 656 518  2
120 129 122 120 133 126 129 132 135 127 128 129  3
119 611 776 120 690 753 130 652 713 137 777 544  4
123 391 475 120 494 516 129 535 600 131 644 488  5
116 117 116 120 123 119 127 131 128 126 122 120  6
123 626 823 120 847 738 134 781 678 139 842 550  7
103 352 436 116 480 448 119 573 462 120 555 335  8
116 122 115 116 127 124 126 125 124 127 124 122  9
119 742 839 116 853 701 126 805 651 129 895 400  10
113 230 276 116 403 323 122 440 335 121 455 214  11

Chip#1
102 103 106 102 101 102 105 100 93 99 100 101  0
105 516 809 110 1056 971 112 881 482 108 924 351  1
108 751 1072 104 1217 1076 110 810 469 104 1203 482  2
102 134 126 110 152 136 107 158 110 102 146 116  3
95 905 1212 104 1181 1094 111 1371 962 107 1531 772  4
102 882 1146 102 1092 965 106 1159 825 99 1395 697  5
98 144 145 101 156 153 105 175 119 104 160 133  6
105 1010 1365 105 1386 1230 119 1493 1089 99 1550 815  7
101 805 1121 102 1131 1012 103 1192 852 101 1200 623  8
113 143 146 104 159 162 107 171 119 102 156 122  9
98 829 1150 101 1133 1089 104 1223 872 91 1271 632  10
108 555 823 105 906 906 110 950 686 99 827 392  11
Chip#2
119 123 121 116 127 117 119 122 126 125 127 120  0
118 412 580 116 623 770 130 422 454 132 599 454  1
117 334 470 116 517 617 124 370 454 124 664 522  2
122 128 122 116 129 125 126 132 133 130 129 127  3
113 623 799 116 704 770 122 662 725 130 793 544  4
123 400 537 116 497 524 130 549 611 130 663 502  5
117 127 120 116 130 120 129 127 133 125 124 125  6
119 641 842 116 871 758 132 796 683 130 859 554  7
122 382 464 116 516 481 138 596 491 135 589 359  8
116 123 119 116 132 120 126 127 127 126 129 123  9
122 758 863 116 877 701 132 819 680 135 919 407  10
112 230 271 116 400 323 124 443 337 119 465 211  11

Chip#1
104 106 109 101 103 106 104 102 95 104 103 103  0
101 523 817 98 1075 990 108 884 488 104 940 362  1
99 756 1082 101 1243 1096 105 821 471 104 1225 494  2
101 130 129 102 150 144 107 156 110 96 150 120  3
105 919 1225 105 1196 1115 112 1391 972 108 1550 788  4
99 897 1164 101 1116 985 103 1181 843 98 1412 716  5
104 143 143 104 164 153 112 171 128 102 163 126  6
99 1020 1370 105 1405 1242 104 1504 1100 93 1573 819  7
100 814 1124 95 1141 1026 103 1202 856 93 1205 632  8
104 138 145 95 161 163 105 178 119 101 154 124  9
107 837 1160 99 1148 1101 107 1230 875 95 1284 642  10
116 548 829 104 922 918 108 971 687 101 831 391  11
Chip#2
112 114 107 116 121 108 116 122 121 116 117 114  0
113 403 568 116 631 776 120 417 449 124 602 467  1
118 337 478 116 534 645 125 375 449 130 684 534  2
112 123 119 116 125 125 120 125 126 120 124 123  3
117 642 812 116 725 784 126 682 741 129 799 564  4
123 422 494 116 521 547 134 568 635 137 690 522  5
123 125 122 116 133 128 129 133 134 130 130 123  6
128 678 866 116 891 773 130 820 706 132 879 574  7
124 387 475 116 523 489 134 618 501 135 602 361  8
116 122 122 116 127 124 124 127 129 126 126 120  9
122 761 891 116 901 707 128 843 677 130 938 415  10
117 251 290 116 413 336 124 459 350 126 480 221  11

Chip#1
110 102 106 99 96 102 108 106 96 101 108 102  0
113 524 817 107 1082 995 114 885 494 113 947 361  1
104 752 1072 102 1248 1101 112 814 475 105 1237 492  2
107 131 130 104 150 141 108 155 108 98 147 119  3
96 921 1232 99 1197 1119 103 1396 986 101 1563 785  4
102 906 1172 105 1122 985 108 1183 846 104 1422 714  5
102 147 145 98 157 157 108 180 125 96 166 130  6
95 1027 1391 104 1421 1254 107 1515 1115 98 1581 824  7
105 820 1149 99 1154 1037 104 1216 875 99 1224 638  8
108 141 148 107 159 160 105 177 118 102 158 126  9
104 844 1161 101 1158 1108 107 1241 884 101 1288 644  10
110 561 835 99 919 921 115 962 691 104 840 395  11
Chip#2
118 114 112 116 123 119 119 124 128 120 126 120  0
112 401 572 116 647 801 125 417 449 125 621 467  1
117 337 474 116 549 653 127 374 403 125 703 548  2
106 115 109 116 119 115 117 118 124 110 115 117  3
119 653 844 116 740 816 129 700 762 129 823 574  4
118 414 505 116 528 550 130 580 651 132 705 533  5
129 129 127 116 136 134 136 139 138 136 134 131  6
125 694 891 116 916 796 133 841 730 131 901 591  7
114 379 477 116 527 489 127 618 501 122 608 360  8
117 129 122 116 133 125 132 138 134 126 124 126  9
125 779 916 116 926 731 133 872 702 134 969 430  10
119 230 297 116 427 341 126 474 362 125 491 228  11

Chip#1
104 103 99 96 102 105 103 103 89 98 96 105  0
99 518 810 102 1088 994 103 882 483 98 941 358  1
102 749 1072 108 1249 1105 106 816 467 107 1238 492  2
104 128 126 99 143 137 104 153 102 96 142 119  3
99 923 1248 102 1211 1129 110 1411 986 104 1575 798  4
97 908 1185 101 1138 998 103 1197 856 101 1435 720  5
96 140 143 99 155 149 103 168 119 87 159 129  6
101 1045 1401 104 1418 1267 103 1525 1122 91 1595 841  7
104 829 1151 98 1163 1048 108 1226 877 98 1232 646  8
102 140 148 99 164 157 104 172 119 96 155 123  9
108 853 1178 108 1168 1119 110 1246 897 96 1308 650  10
111 565 844 99 924 939 108 973 703 96 846 403  11
Chip#2
116 112 112 116 128 118 120 126 124 121 120 121  0
125 422 580 116 678 829 130 426 453 129 651 485  1
111 332 469 116 555 668 120 370 401 126 710 556  2
112 114 113 116 123 119 120 129 125 126 122 123  3
118 694 870 116 764 835 132 729 792 131 849 594  4
131 438 521 116 551 574 133 599 680 138 731 550  5
122 127 122 116 132 126 129 130 129 131 123 125  6
128 710 917 116 949 820 135 870 751 136 933 609  7
119 398 488 116 553 505 130 637 524 127 628 377  8
114 117 120 116 133 124 126 130 128 127 117 126  9
117 801 940 116 950 748 127 892 708 127 996 436  10
116 246 296 116 436 351 120 499 363 127 521 229  11

Chip#1
110 107 112 105 106 106 110 109 102 102 108 112  0
108 523 812 101 1087 997 111 873 486 102 953 361  1
105 749 1069 122 1257 1108 112 809 473 110 1247 496  2
105 130 130 105 152 144 115 158 115 95 152 124  3
102 933 1258 107 1222 1129 114 1419 1001 107 1580 803  4
101 909 1183 111 1134 994 105 1201 851 99 1440 717  5
105 145 146 113 158 160 112 172 128 102 167 131  6
105 1060 1414 105 1437 1274 112 1537 1126 102 1611 842  7
105 824 1153 105 1167 1046 103 1231 879 101 1233 646  8
100 144 148 101 164 160 110 183 122 98 158 127  9
111 849 1178 113 1162 1119 118 1246 892 105 1312 648  10
116 566 847 110 924 936 114 977 703 101 855 402  11
Chip#2
116 117 120 116 126 125 122 124 126 127 123 125  0
114 404 575 116 686 852 120 416 450 130 657 495  1
120 344 488 116 579 717 130 375 450 135 748 588  2
113 123 123 116 128 124 124 127 129 127 127 125  3
122 710 894 116 793 859 134 744 813 137 875 615  4
123 438 537 116 562 582 130 619 684 135 741 569  5
116 122 124 116 128 120 130 125 130 125 123 123  6
119 726 951 116 981 841 132 889 770 132 956 622  7
118 422 499 116 566 524 133 660 539 131 653 389  8
122 130 130 116 134 129 134 135 133 132 132 128  9
123 824 975 116 981 771 132 926 734 131 1033 455  10
119 262 314 116 451 357 130 499 372 126 553 237  11

Chip#1
104 100 103 96 100 103 103 103 96 96 92 101  0
95 518 804 98 1091 997 104 873 477 98 949 357  1
105 753 1079 102 1270 1119 115 821 472 105 1254 498  2
101 137 132 99 150 144 103 155 111 99 148 120  3
101 937 1261 107 1227 1139 107 1428 1005 105 1592 806  4
105 924 1206 104 1148 1008 112 1206 863 105 1457 722  5
95 139 143 93 157 153 108 177 122 84 160 126  6
95 1057 1416 113 1436 1274 103 1535 1130 99 1614 835  7
102 835 1161 96 1176 1058 103 1240 884 99 1244 651  8
117 145 154 98 164 162 104 180 124 99 158 123  9
101 856 1187 98 1171 1120 103 1262 899 98 1312 654  10
113 571 846 107 932 935 108 980 713 104 857 404  11
Chip#2
107 107 108 116 120 114 114 116 120 115 115 114  0
118 403 575 116 708 880 125 421 447 122 676 508  1
112 331 471 116 586 701 119 370 407 124 761 592  2
123 123 121 116 129 128 125 130 137 127 128 129  3
118 726 930 116 812 893 127 758 833 134 907 631  4
118 454 543 116 566 599 125 628 700 127 761 575  5
118 123 116 116 127 119 122 129 133 126 128 122  6
118 742 962 116 993 867 127 910 786 125 983 639  7
128 414 511 116 582 542 133 689 557 132 677 401  8
122 125 126 116 133 135 125 135 136 130 127 128  9
123 847 1000 116 1010 795 125 949 746 130 1046 458  10
116 246 313 116 469 364 126 507 382 127 540 237  11

Chip#1
99 98 104 98 100 100 103 103 92 91 95 99  0
102 524 817 98 1101 1012 112 882 482 108 956 366  1
96 749 1067 98 1268 1110 107 807 465 98 1245 492  2
107 130 128 105 146 137 112 147 113 99 142 117  3
93 945 1264 99 1234 1144 108 1438 1011 104 1595 812  4
108 928 1203 104 1151 1004 114 1216 862 104 1457 730  5
102 150 145 99 164 156 108 177 121 102 166 133  6
100 1070 1432 102 1446 1284 105 1550 1135 104 1629 845  7
107 838 1169 99 1180 1057 108 1237 884 102 1245 652  8
110 150 156 108 159 166 111 183 125 108 162 129  9
105 858 1189 105 1181 1128 107 1271 903 101 1315 655  10
120 572 855 110 928 936 119 983 708 105 853 402  11
Chip#2
119 118 115 116 126 125 124 123 126 118 126 120  0
119 406 576 116 734 909 124 418 449 126 695 519  1
125 340 475 116 609 730 130 375 449 126 793 615  2
120 129 122 116 130 127 129 132 131 130 127 121  3
119 742 950 116 832 913 126 774 855 129 924 646  4
126 454 560 116 592 625 126 650 723 134 777 593  5
123 125 123 116 132 128 124 129 126 127 129 126  6
123 774 1007 116 1033 899 135 947 812 132 1033 659  7
125 422 522 116 602 557 135 706 566 135 688 411  8
124 131 126 116 132 128 130 135 131 130 131 131  9
120 878 1028 116 1035 819 128 983 781 134 1084 458  10
116 246 315 116 469 370 121 521 389 124 551 238  11

Chip#1
98 103 102 96 99 109 103 102 93 96 99 102  0
97 528 821 98 1104 1015 107 886 483 104 962 367  1
98 757 1082 98 1281 1123 103 818 469 101 1267 498  2
92 135 132 96 150 141 103 161 108 88 150 116  3
99 956 1280 96 1239 1154 111 1445 1019 108 1612 813  4
88 929 1207 86 1156 1010 103 1216 868 90 1461 725  5
98 143 148 95 164 153 103 183 125 91 158 126  6
110 1079 1437 113 1457 1286 112 1565 1145 101 1634 851  7
102 844 1179 96 1181 1062 103 1253 896 96 1258 655  8
110 145 152 99 161 163 104 218 127 96 155 123  9
98 865 1203 104 1182 1132 103 1275 909 90 1330 662  10
108 584 860 102 936 949 103 994 716 96 866 411  11
Chip#2
116 120 116 116 127 117 119 123 128 122 127 121  0
111 400 576 116 742 957 120 415 447 127 715 532  1
129 352 488 116 636 757 134 387 417 139 813 642  2
118 120 119 116 125 124 124 130 129 127 128 126  3
125 769 1000 116 865 961 129 808 885 136 963 672  4
128 486 581 116 609 643 130 680 754 141 808 617  5
116 122 119 116 128 125 128 133 129 129 128 123  6
132 784 1041 116 1067 933 138 987 844 142 1052 680  7
116 438 540 116 616 565 130 723 580 131 712 419  8
122 129 134 116 141 132 133 140 137 140 136 132  9
117 906 1069 116 1078 841 129 1011 801 130 1118 483  10
119 253 327 116 490 388 127 536 401 129 575 249  11

Chip#1
92 96 99 96 97 103 103 105 89 91 91 98  0
97 531 822 98 1112 1015 108 890 493 105 968 369  1
101 764 1090 95 1287 1132 105 828 473 102 1271 506  2
90 137 126 96 150 140 102 153 102 84 147 117  3
90 946 1275 95 1239 1149 105 1450 1015 99 1612 813  4
87 926 1207 92 1159 1011 101 1227 871 95 1467 724  5
95 144 145 96 164 150 103 172 122 87 160 127  6
98 1079 1435 101 1454 1294 105 1569 1148 91 1646 855  7
96 846 1174 92 1181 1062 103 1254 897 91 1252 658  8
101 147 154 102 161 162 103 219 127 102 156 123  9
96 867 1199 96 1181 1132 103 1278 909 95 1329 658  10
107 580 866 96 938 950 106 996 722 95 866 410  11
Chip#2
112 118 114 116 123 119 120 125 121 122 129 122  0
111 422 588 116 774 975 124 424 454 122 731 549  1
112 343 504 116 639 769 122 377 454 124 827 648  2
114 118 114 116 122 125 124 124 125 121 126 123  3
119 784 1017 116 890 987 133 826 936 134 980 679  4
123 529 599 116 630 664 132 695 772 132 832 633  5
117 121 119 116 127 126 129 126 129 126 126 125  6
119 797 1072 116 1096 969 129 1011 866 129 1079 704  7
118 454 555 116 634 582 129 748 596 134 730 432  8
116 121 119 116 130 123 126 132 130 127 122 123  9
116 950 1101 116 1102 864 124 1025 815 124 1151 492  10
116 254 336 116 496 392 125 553 409 121 588 256  11

Chip#1
104 110 112 107 107 112 106 111 101 112 103 110  0
95 532 827 99 1117 1016 110 899 487 102 969 370  1
92 765 1096 99 1282 1123 104 822 472 102 1267 500  2
89 130 125 92 164 137 103 159 102 85 148 119  3
102 951 1276 104 1248 1158 114 1451 1022 108 1608 816  4
95 933 1212 95 1162 1015 103 1223 872 95 1469 730  5
97 150 149 98 164 156 105 183 125 96 167 130  6
104 1071 1435 101 1460 1298 104 1560 1148 90 1639 856  7
104 850 1182 93 1184 1070 103 1259 903 91 1264 666  8
92 139 145 93 171 150 103 175 118 95 154 122  9
96 867 1201 90 1181 1130 103 1278 903 95 1332 657  10
102 583 870 96 944 956 103 1005 724 95 872 410  11
Chip#2
109 106 106 117 119 108 109 114 115 116 115 114  0
119 422 611 118 803 1009 126 433 467 127 762 575  1
128 363 493 117 675 808 132 396 423 137 859 677  2
120 127 121 117 130 129 128 133 134 124 131 127  3
123 815 1053 117 918 1021 132 864 951 136 1024 710  4
124 502 614 117 646 674 132 715 798 134 857 649  5
122 123 123 117 132 125 128 136 130 125 127 125  6
118 820 1101 117 1131 991 130 1034 889 131 1110 714  7
119 454 572 117 652 598 133 756 613 127 754 436  8
126 130 128 117 135 127 132 136 134 131 130 132  9
123 966 1145 117 1145 895 130 1070 849 135 1198 509  10
119 260 345 117 512 403 125 571 417 124 609 256  11

Chip#1
104 110 107 105 105 103 105 108 109 99 92 112  0
99 533 838 98 1112 1020 104 898 491 105 968 367  1
98 767 1103 99 1283 1127 108 823 477 99 1267 498  2
98 133 130 101 147 140 103 158 104 96 148 117  3
98 956 1287 99 1251 1153 114 1456 1028 108 1618 817  4
107 936 1212 107 1162 1017 111 1231 883 107 1482 735  5
108 147 152 104 167 157 111 184 128 96 168 134  6
102 1083 1444 102 1465 1300 111 1577 1157 93 1646 859  7
98 854 1180 102 1192 1070 105 1262 901 96 1269 663  8
110 148 151 105 165 160 114 183 125 107 163 130  9
101 874 1211 102 1194 1141 104 1283 924 99 1339 670  10
105 580 868 98 943 947 110 997 721 99 864 407  11
Chip#2
122 123 119 117 132 122 128 131 131 127 129 131  0
107 422 612 118 807 1025 117 429 466 119 766 572  1
122 364 498 117 684 821 126 391 426 131 882 692  2
119 125 121 117 129 126 121 130 130 126 127 128  3
123 837 1090 117 942 1047 134 880 981 135 1065 723  4
126 518 636 117 664 701 136 736 820 141 886 665  5
126 125 130 117 138 126 134 133 136 129 132 123  6
118 843 1137 117 1170 1024 130 1057 913 129 1146 727  7
119 486 582 117 671 618 132 782 638 130 777 453  8
116 122 113 117 127 123 122 126 126 124 126 121  9
110 998 1177 117 1174 920 121 1093 867 125 1226 518  10
119 271 356 117 527 445 129 582 426 127 629 267  11

Chip#1
100 103 104 102 102 103 103 103 93 101 97 101  0
98 549 854 105 1129 1026 122 917 501 107 981 374  1
90 786 1121 93 1299 1134 103 839 480 99 1276 500  2
96 135 128 102 152 141 107 159 104 93 148 117  3
104 955 1282 104 1251 1162 114 1461 1023 107 1629 817  4
93 929 1212 92 1164 1019 105 1229 878 93 1476 727  5
101 144 149 99 164 155 108 192 124 90 160 133  6
88 1086 1444 96 1470 1304 103 1577 1156 90 1655 864  7
102 853 1184 104 1189 1071 104 1261 905 104 1271 657  8
96 141 152 93 158 162 105 178 124 98 158 124  9
101 876 1208 104 1181 1138 105 1289 921 95 1343 666  10
107 585 868 105 948 959 108 1005 724 95 871 410  11
Chip#2
114 114 108 120 121 117 118 117 119 115 120 117  0
114 454 640 120 831 1059 124 444 481 120 784 593  1
119 368 515 120 700 844 125 401 436 130 898 706  2
118 122 120 120 129 125 124 129 127 120 121 123  3
128 871 1127 120 981 1088 135 909 1008 139 1066 746  4
126 510 650 120 683 713 133 755 840 136 906 686  5
133 130 130 120 139 135 134 145 141 139 132 137  6
127 873 1174 120 1204 1068 136 1094 957 138 1180 759  7
123 486 602 120 683 631 130 797 646 134 793 458  8
116 121 116 120 129 122 127 129 129 125 118 123  9
125 1030 1215 120 1221 971 133 1138 901 136 1289 544  10
124 268 360 120 539 453 125 602 435 122 642 271  11

Chip#1
110 109 110 105 103 109 104 111 95 107 103 102  0
99 546 854 102 1125 1022 110 922 501 105 981 366  1
105 791 1128 107 1300 1142 107 847 486 105 1287 499  2
108 131 128 113 150 144 110 158 110 107 152 117  3
97 971 1299 102 1263 1172 108 1470 1031 107 1639 821  4
104 942 1213 104 1173 1022 105 1234 879 102 1482 730  5
101 148 148 98 159 160 108 183 128 90 164 131  6
96 1088 1447 101 1470 1305 104 1575 1157 96 1658 858  7
101 863 1196 99 1197 1079 112 1271 911 93 1279 661  8
102 145 151 98 160 160 108 237 121 95 156 123  9
104 874 1212 104 1181 1143 112 1290 921 101 1346 663  10
122 591 879 107 954 963 118 1007 722 105 873 418  11
Chip#2
111 111 110 120 120 118 118 120 123 119 121 116  0
118 454 662 120 866 1093 127 459 502 131 815 614  1
119 368 523 120 725 856 121 409 440 125 917 723  2
123 128 127 120 135 127 130 133 134 130 134 133  3
119 871 1139 120 990 1096 124 916 1023 125 1085 746  4
132 529 675 120 704 733 136 765 862 140 940 707  5
118 122 120 120 130 125 126 132 136 125 126 125  6
120 889 1200 120 1246 1078 129 1117 973 131 1198 770  7
126 502 620 120 712 661 137 827 716 136 813 474  8
123 129 123 120 138 129 129 136 133 130 127 129  9
125 1030 1245 120 1250 991 129 1166 936 134 1296 550  10
119 277 375 120 557 473 128 615 449 132 655 277  11
