
Chip#1
243 372 317 221 289 302 274 266 243 330 363 363  0
241 372 322 235 280 303 292 261 238 342 355 344  1
239 372 457 414 287 440 498 276 363 459 379 388  2
244 373 348 277 293 382 355 276 347 363 420 395  3
239 373 435 363 291 387 422 277 247 334 363 386  4
240 373 2915 2859 306 3083 422 415 379 411 425 389  5
240 372 1379 1289 295 1723 2939 306 347 363 363 387  6
245 373 423 298 297 313 299 274 315 334 363 393  7
233 374 3739 3531 302 1803 2187 278 237 326 355 382  8
241 373 2403 1979 293 1787 2147 277 238 327 355 387  9
251 372 321 222 282 298 279 259 236 327 355 384  10
264 373 316 217 283 296 271 257 237 326 355 15000  11
Chip#2
355 331 408 335 261 418 331 302 379 355 355 299  0
363 347 411 363 263 420 333 305 395 355 363 301  1
363 363 409 339 268 420 335 309 379 355 363 307  2
363 347 414 363 271 422 346 319 395 363 379 304  3
355 347 414 410 278 422 351 318 395 355 363 302  4
355 331 405 335 257 420 332 299 363 355 355 298  5
355 347 413 345 271 428 574 552 379 496 579 316  6
363 347 415 413 281 433 867 875 395 574 667 383  7
363 363 412 363 265 420 363 363 395 363 379 304  8
355 347 409 338 269 422 363 437 395 427 603 314  9
355 331 404 331 257 414 563 611 395 603 867 414  10
363 347 411 339 266 420 355 363 395 363 497 15000  11

Chip#1
236 373 305 209 277 292 267 258 231 325 363 384  0
239 372 324 229 281 303 288 262 238 341 363 384  1
237 372 440 400 280 431 481 273 363 443 431 382  2
242 372 337 266 285 327 351 271 267 299 363 386  3
236 372 432 316 291 339 363 273 241 330 355 345  4
234 372 2859 2843 297 3051 363 405 347 395 363 339  5
237 372 1368 1285 294 1691 2915 300 331 347 355 343  6
240 372 411 284 289 305 284 263 239 328 355 338  7
239 374 3739 3547 299 1803 2171 279 237 329 355 343  8
242 373 2347 1979 293 1787 2147 274 233 326 355 341  9
257 372 315 220 283 298 274 261 234 326 355 341  10
267 373 312 213 286 294 272 260 232 322 355 15000  11
Chip#2
363 347 406 334 259 418 330 298 379 351 363 298  0
363 363 409 338 266 422 336 304 395 355 363 305  1
363 347 411 363 264 423 334 304 395 355 363 305  2
363 363 407 363 266 416 342 310 395 355 363 302  3
363 347 410 363 272 414 349 314 379 355 363 298  4
363 347 415 363 269 426 337 311 379 355 363 307  5
355 347 409 363 268 421 566 545 379 427 573 306  6
363 363 415 414 277 432 867 875 411 577 683 383  7
363 347 405 389 259 415 363 348 379 355 379 293  8
363 347 406 336 265 418 363 434 395 479 604 311  9
363 347 412 340 263 420 576 619 411 611 875 425  10
363 363 409 339 265 420 355 363 395 363 493 15000  11

Chip#1
237 347 300 210 274 286 264 250 229 322 355 338  0
245 363 330 240 287 308 297 268 243 251 355 390  1
237 363 454 414 277 432 496 267 363 459 430 342  2
238 363 340 270 279 325 352 267 266 363 363 386  3
240 363 438 315 292 342 363 275 247 337 355 386  4
243 379 2915 2859 308 3067 363 414 363 411 422 391  5
238 363 1375 1288 293 1707 2923 301 347 379 363 383  6
240 363 363 290 289 308 287 268 243 328 355 341  7
237 379 3755 3547 300 1891 2203 279 234 322 355 337  8
248 379 2403 1979 299 1803 2155 281 245 337 363 388  9
259 379 321 225 287 301 277 263 237 331 355 387  10
270 379 316 221 286 297 270 262 234 331 355 15000  11
Chip#2
363 347 407 338 265 421 334 308 379 355 363 301  0
355 347 400 329 252 408 322 295 379 349 355 288  1
363 347 408 341 265 421 330 303 379 355 363 301  2
355 347 408 363 263 415 339 307 379 355 363 298  3
363 347 403 409 271 416 343 307 395 363 429 294  4
363 363 406 363 263 420 334 302 395 355 363 297  5
363 347 406 363 263 419 561 538 379 490 570 305  6
355 347 404 407 266 424 867 867 379 568 667 313  7
363 347 409 344 265 417 355 363 379 355 379 300  8
355 347 403 334 256 415 355 379 379 411 597 307  9
363 347 405 340 263 417 573 619 395 610 867 418  10
363 347 405 332 256 416 355 363 379 363 487 15000  11

Chip#1
246 363 314 218 282 297 274 265 238 331 355 363  0
238 363 320 226 274 296 285 256 233 336 355 343  1
238 363 454 407 283 436 496 272 363 459 428 342  2
236 347 332 262 281 325 343 264 315 307 355 338  3
236 363 433 315 293 339 363 271 247 235 355 346  4
239 379 2915 2915 303 3083 363 419 363 411 363 386  5
241 363 1379 1306 297 1707 2939 305 284 363 363 346  6
236 363 363 284 285 304 284 265 236 327 355 336  7
243 378 3803 3579 307 1891 2235 285 236 333 355 387  8
242 377 2403 1995 289 1803 2171 277 239 328 355 388  9
257 376 319 226 282 301 278 264 237 328 355 389  10
267 377 315 215 283 296 270 261 233 327 355 15000  11
Chip#2
363 363 413 363 266 418 338 308 395 355 363 304  0
363 347 405 332 259 415 329 299 379 352 355 294  1
363 347 407 334 260 416 328 302 395 355 363 299  2
355 347 404 363 264 414 339 305 379 355 363 291  3
355 347 409 363 274 414 346 311 379 355 363 294  4
363 363 414 340 268 422 337 307 379 355 363 302  5
363 347 411 363 267 421 570 545 395 491 578 307  6
355 347 408 363 273 424 867 867 395 570 667 313  7
363 363 408 363 269 423 363 363 395 363 395 300  8
355 347 406 334 258 414 363 432 379 477 597 312  9
355 347 402 332 258 416 566 619 395 603 875 413  10
429 363 417 363 270 424 355 363 395 379 498 15000  11

Chip#1
243 376 308 217 285 292 269 261 237 330 363 390  0
239 376 321 234 282 302 293 262 239 344 355 344  1
238 376 451 407 282 438 497 272 363 459 431 385  2
234 347 336 261 279 324 346 267 267 313 355 342  3
239 363 433 315 293 383 363 272 250 235 355 385  4
240 379 2923 2915 306 3115 363 416 363 411 363 387  5
241 379 1379 1305 296 1723 2971 306 284 363 363 388  6
242 363 413 288 291 305 285 271 244 328 355 384  7
235 379 3803 3595 304 1891 2219 277 239 219 355 340  8
246 379 2403 2011 297 1891 2187 284 242 329 355 390  9
252 363 315 223 280 297 277 261 238 326 355 340  10
273 379 319 223 289 300 275 267 239 330 355 15000  11
Chip#2
363 363 409 337 262 420 334 303 379 353 363 302  0
353 347 401 333 255 411 326 296 379 348 355 294  1
363 363 410 363 267 424 334 305 395 355 363 305  2
363 347 404 363 267 417 341 306 379 355 363 297  3
363 363 416 414 280 422 349 319 395 363 379 303  4
363 363 411 363 268 424 335 305 395 355 363 303  5
363 347 413 363 267 423 572 546 395 490 577 308  6
363 363 410 407 279 428 848 875 395 574 683 317  7
428 363 412 363 270 425 363 363 395 363 395 302  8
363 347 405 336 262 418 363 434 379 477 602 312  9
363 363 406 363 261 418 575 619 411 610 875 425  10
363 363 413 342 267 423 355 363 395 379 494 15000  11
