
Chip#1
101 112 98 104 104 104 113 113 100 111 109 107  0
140 159 102 113 106 103 124 128 99 132 118 102  1
139 161 108 109 105 102 123 127 104 132 121 103  2
111 161 106 107 106 112 118 128 106 112 110 109  3
113 161 102 109 109 106 127 130 106 138 113 103  4
108 110 98 107 106 106 118 125 99 113 111 103  5
101 100 94 106 104 103 112 108 100 106 102 98  6
109 117 99 117 113 107 123 133 106 138 119 99  7
116 142 106 118 109 111 126 128 110 138 121 105  8
105 111 97 111 105 104 119 113 100 115 111 107  9
111 142 99 116 109 111 135 141 101 138 117 105  10
117 112 102 114 107 110 125 132 102 115 113 15000  11
Chip#2
143 153 127 151 126 127 131 125 130 137 124 124  0
153 153 126 123 117 126 127 120 127 137 118 124  1
149 142 129 127 122 127 123 118 131 136 123 124  2
139 131 136 133 129 134 133 129 150 137 126 136  3
141 136 130 151 125 131 132 130 150 137 126 124  4
131 126 128 127 126 127 125 123 125 136 115 126  5
134 130 128 128 121 126 127 126 127 136 122 124  6
141 160 126 151 127 130 133 125 150 137 128 128  7
131 131 126 131 125 129 128 121 127 137 126 127  8
141 132 129 133 129 130 133 131 133 136 127 131  9
141 134 126 151 126 127 132 130 127 137 120 122  10
150 141 137 151 137 135 135 135 150 137 126 15000  11

Chip#1
98 100 94 98 104 92 101 102 94 95 95 98  0
134 149 97 104 95 99 117 110 94 116 113 102  1
136 162 104 106 104 103 117 112 99 115 115 97  2
110 110 100 107 104 104 111 124 105 107 105 99  3
115 142 102 111 111 108 126 132 106 138 122 103  4
111 142 103 112 105 110 120 128 107 115 116 102  5
106 110 97 106 104 107 109 124 106 106 109 103  6
111 110 95 116 108 104 121 128 104 119 123 103  7
111 109 94 111 107 107 120 129 104 111 112 102  8
96 98 85 94 98 94 120 99 90 98 94 93  9
109 142 98 107 104 104 125 138 102 116 113 102  10
106 107 95 107 104 100 118 114 100 103 109 15000  11
Chip#2
130 128 118 116 113 113 114 111 120 116 111 114  0
139 153 115 112 114 116 114 117 121 131 119 118  1
137 153 119 115 113 119 121 118 123 131 115 118  2
124 123 118 116 118 117 119 118 121 131 116 121  3
126 126 112 111 113 115 117 113 116 131 114 115  4
124 125 120 120 119 122 120 118 122 131 119 122  5
122 126 119 118 117 116 114 113 120 131 114 113  6
124 127 118 120 121 119 123 114 120 131 120 117  7
122 125 118 115 117 112 116 114 123 131 120 115  8
130 128 119 123 126 123 121 121 127 131 124 124  9
130 131 124 123 123 119 123 122 125 131 116 119  10
130 131 119 123 122 118 123 117 125 131 118 15000  11

Chip#1
108 106 95 106 97 99 106 103 100 101 104 101  0
144 163 108 113 111 111 126 127 106 129 126 111  1
140 161 104 109 104 103 120 127 105 116 116 102  2
98 105 87 101 93 94 102 98 91 99 94 93  3
110 118 97 109 104 103 123 125 100 116 111 99  4
115 122 104 116 108 111 129 132 104 118 117 105  5
99 98 90 99 104 99 105 106 99 103 100 96  6
110 112 98 118 108 107 121 130 104 138 117 103  7
104 109 93 111 104 103 114 110 100 109 110 96  8
105 104 88 103 104 99 103 124 97 105 100 103  9
111 142 98 109 106 108 127 132 102 119 115 103  10
108 111 95 108 104 106 119 125 96 109 107 15000  11
Chip#2
123 128 114 108 109 108 112 109 116 131 108 112  0
146 153 126 119 118 121 120 120 129 147 122 123  1
127 139 112 111 113 111 110 105 112 112 111 115  2
122 131 120 123 123 121 123 117 120 131 119 122  3
119 126 116 114 117 113 116 114 118 131 116 117  4
126 130 120 118 123 118 119 118 120 131 119 122  5
118 129 115 114 117 113 117 112 121 120 116 119  6
123 128 118 120 119 123 121 115 118 131 124 121  7
124 125 116 116 119 117 114 113 122 131 119 118  8
124 126 115 118 121 118 119 114 120 131 118 118  9
126 131 116 115 122 117 121 116 121 131 118 117  10
139 160 127 127 126 123 125 122 150 147 120 15000  11

Chip#1
94 99 86 98 93 92 119 99 87 93 94 93  0
132 158 102 111 104 102 124 125 97 119 115 104  1
141 161 107 109 104 106 123 110 100 121 117 105  2
105 111 90 102 104 98 108 98 94 100 102 96  3
117 142 100 114 108 115 128 132 109 138 117 107  4
111 118 100 112 105 106 120 128 102 116 116 99  5
98 103 98 104 104 108 114 112 100 105 101 104  6
109 113 103 118 113 106 124 132 102 121 119 103  7
110 115 100 116 106 107 119 127 102 113 121 104  8
100 105 97 107 104 106 111 108 101 106 106 103  9
110 118 98 108 108 114 129 136 105 122 121 102  10
105 106 97 108 104 107 119 125 97 104 109 15000  11
Chip#2
123 123 115 114 114 112 113 111 121 131 112 110  0
138 153 119 111 113 113 114 114 121 131 115 115  1
130 135 115 112 113 115 114 114 117 117 114 118  2
129 128 123 119 118 126 125 125 122 131 119 121  3
119 125 118 114 114 117 117 117 118 131 116 114  4
126 127 122 118 119 122 117 121 121 131 119 118  5
122 126 119 122 115 113 118 113 117 131 110 118  6
129 132 123 126 123 125 125 121 125 131 128 117  7
121 123 118 122 114 115 114 111 116 131 118 114  8
115 121 119 115 114 115 117 114 120 131 111 113  9
129 126 116 120 118 121 123 120 120 131 118 118  10
134 135 123 126 126 123 121 116 126 131 126 15000  11

Chip#1
109 107 94 111 104 106 113 105 106 106 106 103  0
131 151 92 104 104 99 117 102 97 138 109 98  1
141 162 102 107 105 106 118 124 111 138 112 105  2
106 110 94 100 104 106 109 101 99 104 99 97  3
118 118 98 113 107 107 125 121 106 117 113 99  4
113 119 99 112 108 106 124 119 106 115 113 102  5
108 109 98 113 104 106 113 112 105 110 106 107  6
117 142 100 125 112 114 124 132 110 138 122 110  7
103 111 92 108 104 98 112 108 101 110 112 99  8
98 104 93 102 104 99 109 104 97 105 102 99  9
111 121 100 112 105 111 131 142 106 123 115 108  10
112 117 103 114 108 110 127 131 109 113 117 15000  11
Chip#2
133 137 124 120 121 121 117 122 125 131 119 123  0
149 153 119 118 114 116 114 118 125 131 119 117  1
127 153 111 111 113 112 116 113 113 131 112 112  2
119 122 111 112 110 116 116 114 116 121 114 114  3
120 123 112 116 113 119 117 121 118 131 116 115  4
126 132 124 124 119 121 121 120 125 147 122 121  5
119 126 116 116 116 117 112 112 118 131 111 114  6
133 128 127 124 123 121 121 118 120 131 123 124  7
124 126 114 119 115 115 116 117 116 131 122 118  8
124 123 116 120 116 115 116 116 120 117 114 114  9
126 126 114 118 115 115 121 121 116 131 112 115  10
137 134 124 120 123 122 127 122 126 131 122 15000  11

Chip#1
95 100 85 94 104 91 102 96 96 94 96 97  0
139 160 102 108 104 104 118 124 105 138 112 103  1
137 160 108 108 105 100 119 124 106 138 113 102  2
105 112 95 100 104 104 109 103 101 106 105 103  3
109 116 95 107 104 99 121 124 102 113 112 98  4
104 117 97 109 106 103 119 112 104 111 116 102  5
104 110 95 104 104 107 111 102 96 104 104 103  6
119 121 105 122 118 114 130 132 114 127 124 113  7
113 113 98 111 104 104 117 124 104 111 113 98  8
99 105 95 103 104 102 106 102 97 101 101 94  9
110 121 103 111 104 103 131 135 104 138 117 102  10
106 110 90 104 104 99 113 112 100 104 107 15000  11
Chip#2
118 127 108 111 110 109 104 107 108 131 107 109  0
145 153 120 116 113 112 116 121 120 147 123 119  1
134 140 115 115 118 115 114 116 117 131 111 114  2
118 121 114 108 109 108 108 111 112 131 110 113  3
127 130 122 122 118 121 123 118 120 131 118 121  4
120 127 115 116 114 119 114 116 117 120 118 112  5
122 129 118 119 121 121 120 120 125 131 119 121  6
122 122 114 116 118 118 116 109 116 131 118 112  7
122 126 118 118 121 123 120 117 122 131 118 114  8
116 120 111 114 113 113 109 114 113 111 111 112  9
124 125 118 114 118 115 120 114 113 131 107 112  10
122 127 115 115 113 115 112 113 116 117 111 15000  11
